8.656650371447554448e+00
-1.746080689422231558e+02
-7.032010567075158747e+01
-4.366166795855291127e+01
-2.111729037302562801e+02
-5.038044057135597598e+01
-2.110112435589372808e+02
-2.063244560505023628e+02
-1.236020880123122083e+02
-2.510972033034030915e+02
-1.218138020219737996e+02
-2.214801860221430445e+02
-2.496539401266325910e+02
-1.819537009156721865e+02
-3.939932752348730673e+02
-3.920428761725646041e+02
-3.580557671948246821e+02
-2.741734881097175958e+02
-2.925954880628262345e+01
6.127503007220656173e+01
1.919877290223613500e+02
2.773543105434571885e+02
3.099389453349158430e+01
-1.512339398983320109e+02
-1.677491414909747220e+02
-2.327841082736028113e+02
-1.952873052874567179e+02
-2.042476726497498021e+02
-2.383719239003384587e+02
-1.822703089057073953e+02
-2.510506710708400249e+02
-2.241249072734557899e+02
-2.538637033566259902e+02
-8.319568407952365305e+02
-6.250724503615191452e+02
1.535115474923865804e+03
4.175566237878119864e+03
5.558947140258618674e+03
4.752108393046511992e+03
1.790699473241918895e+03
-9.217767310588479290e+01
-3.465483728019589194e+02
-2.462925146551444300e+02
-4.393074871761565987e+02
-4.484483023535803454e+02
-4.741963465192314402e+02
-5.306806460113350568e+02
-4.388427452000215681e+02
-4.774898822134326792e+02
-4.153836183335597525e+02
-3.826534759575303042e+02
-4.104258067590499763e+02
-2.953531541371922913e+02
-2.904382133083080362e+02
-2.540625467643517368e+02
-1.825394431211473716e+02
-1.965498852852614391e+02
-1.346966932503419514e+02
-1.389669537856477177e+02
-1.431116186314071115e+02
-1.125152303121291482e+02
-1.272404225351936446e+02
-9.845015890282145676e+01
-1.045384902271644165e+02
-1.058980197523009394e+02
-7.253358715587793881e+01
-4.061496008813013958e+01
1.268986414938029128e+01
2.754309159155220854e+01
-1.639709037050697660e+01
-8.172142060157410981e+01
-1.510200515624937907e+02
-1.933723464372337162e+02
-2.125957968290591680e+02
-2.254252336324678936e+02
-2.259338959400589886e+02
-1.934555905723625244e+02
-1.706581838257795880e+02
-1.772762490627780778e+02
-1.838637347633702461e+02
-1.653298968755619569e+02
-1.510044695486272417e+02
-1.631208179343943812e+02
-1.815833681495310543e+02
-1.877025304671635126e+02
-2.348946263167902941e+02
-2.651508668877227137e+02
-2.778496052388589987e+02
-3.142165165527929958e+02
-3.011587811039085523e+02
-3.228952947443482913e+02
-3.653600124570396019e+02
-3.964849411142234317e+02
-5.154611233415838569e+02
-4.980449016380173930e+02
-4.449159633613193705e+02
-3.368057801804969813e+02
-1.383522181929265003e+02
-2.214384248896849527e+01
7.632350195007688853e+01
9.740758005207752035e+01
-1.388793738722262674e+02
-1.783456821410464102e+02
-2.113094186010196438e+02
-2.233877881263833274e+02
-1.712318505088836389e+02
-2.476301928203789373e+02
-2.458604270831127678e+02
-2.784098188302860990e+02
-3.297793513071801499e+02
-2.468786562201867412e+02
-5.579501111522242809e+02
-9.891819127377352743e+02
2.066784005721154927e+01
2.772387278105592031e+03
4.823164819259149226e+03
5.545381472656671576e+03
3.498273064725280165e+03
7.183306419937260898e+02
-3.444232964830380297e+02
-2.561142403014991942e+02
-3.486535706241357957e+02
-4.807901993103398013e+02
-4.650794303399927685e+02
-5.398323581437948633e+02
-4.785064017510073882e+02
-4.811236730888076636e+02
-4.950550905706567164e+02
-3.937414228885532452e+02
-4.345975471465299620e+02
-3.798493752894391378e+02
-3.559492168317650567e+02
-3.629561326595853643e+02
-2.675634974236684229e+02
-2.264359036043978790e+02
-1.780918001260199048e+02
-1.417442064358368725e+02
-1.452946456286757098e+02
-1.007055542155255239e+02
-1.057455714301568293e+02
-8.074833075559871531e+01
-6.731550809799736612e+01
-6.679334001108557572e+01
-5.068455367247803878e+01
-7.915228516999965436e+00
4.306093700358260890e+01
5.905821848977524269e+01
6.099684487831925139e+01
5.136356492294363818e+01
-8.575395361455573351e+00
-5.910362603976908957e+01
-1.344301802537661388e+02
-1.528735463595288024e+02
-1.760600219697782336e+02
-1.909927992909746592e+02
-1.920861011085006567e+02
-1.886263952415040137e+02
-1.767288328846186403e+02
-1.985938951292134789e+02
-2.140381758260148501e+02
-2.188165942573587586e+02
-2.685083296634373369e+02
-2.582559988231765260e+02
-2.462437432640790576e+02
-2.644667644504443729e+02
-2.956173297873417596e+02
-3.211167913614933127e+02
-3.281204700295175485e+02
-3.684729606796598205e+02
-4.273673899452135743e+02
-5.569663720063456367e+02
-5.508219223789899388e+02
-4.717290299573718926e+02
-3.833765289446529323e+02
-2.360193141861903143e+02
-1.332431818687817895e+02
-2.036254752919553113e+01
5.296991792654723241e+01
-1.638026049564793993e+02
-2.334035541763356605e+02
-2.343023979515379835e+02
-2.508257076861185908e+02
-1.881503171430563555e+02
-2.706916103636744992e+02
-2.623379809347460991e+02
-2.394906648038295032e+02
-3.123794765632994768e+02
-2.500593087977258051e+02
-4.278108650633815842e+02
-8.760166438253448860e+02
-1.455244859980010119e+02
2.377839232706922303e+03
4.567023603411707882e+03
5.566535846608454449e+03
4.042587625740735803e+03
1.165886156651647070e+03
-1.955368113463109410e+02
-2.597680304186242211e+02
-3.254071656280050320e+02
-4.325303969118363625e+02
-4.054748781093206276e+02
-5.145858098154341178e+02
-4.730155096147983045e+02
-4.325492491948796214e+02
-4.527929805056623422e+02
-4.056895846800945264e+02
-4.308835611118761904e+02
-3.829085299154177733e+02
-3.198358756936850682e+02
-3.269023560968521451e+02
-2.442694975153459040e+02
-2.490548321083542476e+02
-2.358993264917348256e+02
-1.527892524362640074e+02
-1.609870698382434568e+02
-1.391180882920601789e+02
-1.277296625570812125e+02
-1.224234616418596175e+02
-9.979207761244640551e+01
-1.442025556326933042e+02
-1.427507553917794212e+02
-1.305745461926923667e+02
-1.307549034078994055e+02
-9.483020841578021987e+01
-6.010395103933495164e+01
-4.090541492810078950e+01
-5.593978222476282269e+01
-1.048012873738223050e+02
-1.285169613651802081e+02
-1.315937400654794658e+02
-1.438209205256030998e+02
-1.365188529901487300e+02
-1.367534831269381357e+02
-1.515745374296019463e+02
-1.423043316173836956e+02
-1.525597871001310182e+02
-1.581362645216553631e+02
-1.634799952314297968e+02
-1.767641884453297507e+02
-2.040869504461018380e+02
-2.032782525032301919e+02
-1.956717219734619562e+02
-1.757508852923087375e+02
-1.865732955203427252e+02
-2.326460631297237001e+02
-2.475220873222449711e+02
-2.549922776567697724e+02
-2.839924512546736537e+02
-4.436519672655462045e+02
-5.662275282577725193e+02
-4.867394683697629603e+02
-4.221221488580461596e+02
-2.666586922063446536e+02
-1.301465599633692989e+02
-1.101553957363695346e+01
1.170164133775314497e+02
1.045256686496944099e+01
-1.468953792574708643e+02
-1.575877516381349892e+02
-2.311579589082142832e+02
-1.817587080257225693e+02
-1.943590867262483357e+02
-2.646734085923291673e+02
-2.322849126531287709e+02
-3.208795524663406127e+02
-2.620827817971750164e+02
-2.549311921444212601e+02
-7.708638669808949544e+02
-5.634053938844816685e+02
1.453428684022484049e+03
3.962581067051944501e+03
5.366869694811252884e+03
5.105682038042261411e+03
2.365080912667825032e+03
2.543357969568188537e+02
-2.851926685236284129e+02
-3.094062849001113591e+02
-4.985763897241905056e+02
-4.988207711155156403e+02
-5.278094597927140512e+02
-5.680777826350013129e+02
-5.206279752196774098e+02
-5.654929756201986493e+02
-5.035040833202264139e+02
-4.596588724804726667e+02
-4.904813271539155721e+02
-3.815288188131149241e+02
-3.544733042734353035e+02
-3.405882609292593202e+02
-3.326378384123664773e+02
-3.433389872606360314e+02
-2.849414951343451889e+02
-3.072654279952651564e+02
-3.161432732007231721e+02
-2.724186272061471072e+02
-3.000903561935158450e+02
-2.970776343865406375e+02
-3.131637334027645352e+02
-3.370125471922227689e+02
-3.746325405851391110e+02
-3.473085515358040425e+02
-2.637066428294913294e+02
-1.843303461478134864e+02
-1.234072320296073855e+02
-1.204391015228982980e+02
-1.198655058632031540e+02
-8.812174826485659196e+01
-6.756377119919858387e+01
-6.572443802839144666e+01
-8.724126671654418885e+01
-6.571043973038001695e+01
-6.932884073338487951e+01
-7.494687934178472233e+01
-4.789867551196837780e+01
-6.953607935485507596e+01
-1.101140285292943588e+02
-1.255498418675332744e+02
-1.262848059109737022e+02
-6.236916214168655870e+01
-8.474230239754005822e+01
-1.244178370298245397e+02
-1.550841346707056232e+02
-1.761725327047630856e+02
-1.587315432279766014e+02
-1.509827653376663079e+02
-8.828532377290167688e+01
-1.094333637153588370e+02
-1.437904117727771904e+02
-1.711069773232202920e+02
-2.065706818160561795e+02
-3.277963136193643550e+02
-4.825231535687109385e+02
-4.412548643083934508e+02
-3.626903090709539583e+02
-2.207605819784831169e+02
-1.275227703458045738e+02
-4.030819210416134979e+01
1.299860787256748154e+02
6.006927654441592779e+01
-1.116367552922443025e+02
-1.003650980329062179e+02
-1.562594894377778587e+02
-1.067696570974672738e+02
-1.266756406743433274e+02
-1.602890345416120113e+02
-1.095424455371430241e+02
-2.235819907180605810e+02
-2.004163486039906843e+02
-1.770195006982469010e+02
-6.303094612175769953e+02
-3.874856308558901787e+02
1.541312971528125900e+03
3.945332917616844952e+03
5.374834413445732935e+03
5.412817291413791281e+03
2.777739914581889934e+03
5.714503546496107447e+02
-1.078420583206601862e+02
-1.951941510920210021e+02
-4.186381486874761890e+02
-3.901461571655090665e+02
-4.156917876104798779e+02
-4.654529945264408184e+02
-4.241821842412908836e+02
-4.708945025482090614e+02
-4.051251131081524477e+02
-4.027007894061310367e+02
-4.231600238137939414e+02
-3.410267164601909826e+02
-3.847923508019506471e+02
-3.385638686840708829e+02
-2.966461739764416734e+02
-3.750054351746790644e+02
-3.224295787158108055e+02
-2.998237142897132799e+02
-3.264055643571949759e+02
-3.089855456933956930e+02
-3.685006150687715945e+02
-4.115137314827542241e+02
-4.534468859967118988e+02
-4.425853310872487896e+02
-4.709273690258853549e+02
-5.019841130528117219e+02
-4.812258987708665927e+02
-3.093094552536195465e+02
-1.818280623692040194e+02
-1.367000151395245098e+02
-1.216124551052191691e+02
-1.550506451720985979e+02
-1.685151854603088566e+02
-1.436507511931416730e+02
-1.260727739526464717e+02
-1.103092247180408663e+02
-1.423726153319742025e+02
-1.548698254083082588e+02
-1.238461794765731554e+02
-1.086555273651578091e+02
-1.207592004035130486e+02
-1.172079880237767213e+02
-9.895782419812643127e+01
-1.549034768212526956e+02
-1.727408698365599662e+02
-1.209107541163731128e+02
-1.401554866602394895e+02
-1.626365981422999880e+02
-1.646972645899325585e+02
-1.678919270281982108e+02
-1.832724265190861388e+02
-2.239924894004905980e+02
-2.503542080378900891e+02
-2.364099325016860291e+02
-2.449977439740997909e+02
-2.593107777031865453e+02
-2.477513913772896785e+02
-2.533566579299113926e+02
-2.375973562496479019e+02
-2.308754162805985288e+02
-2.741095187941435825e+02
-2.717843385696803580e+02
-3.383858992853051859e+02
-4.991987124860644371e+02
-4.979477001795679598e+02
-4.392701939134814779e+02
-2.729726263322170325e+02
-1.370252358716950312e+02
-6.324174170870864486e+01
1.112540623601215941e+02
1.368711920001582882e+02
-5.190516281502446816e+01
-1.097767230222586079e+02
-1.958571238242582240e+02
-1.289061364560247398e+02
-1.494849541108552273e+02
-1.862531939594691721e+02
-1.269155295589429500e+02
-2.611209338349431164e+02
-2.385823470095768641e+02
-2.033334611265636056e+02
-5.785538603493821483e+02
-3.644874417581071953e+02
1.406350317502523467e+03
3.648006265927735512e+03
4.922875475044927043e+03
5.023941911071123286e+03
2.560464708839293507e+03
5.439821849163784009e+02
-9.889245827794024990e+01
-1.484066753199081745e+02
-3.316396494803410064e+02
-3.242625307276432522e+02
-3.506615688982830079e+02
-4.177418525313391910e+02
-3.430895327155361088e+02
-4.149478540945851819e+02
-3.757810178312254834e+02
-3.190388880246865710e+02
-3.446846963517790527e+02
-2.020948548968615057e+02
-2.131104664494442318e+02
-2.110349910753046174e+02
-2.036229711887469875e+02
-2.369505133177528649e+02
-1.885876933433233944e+02
-2.385630664924505595e+02
-2.299496514050592566e+02
-2.046030521390167394e+02
-2.395053010512617675e+02
-2.465465824025469317e+02
-2.786495525284595942e+02
-3.282367969092870226e+02
-3.620126964599194253e+02
-3.538937830514985876e+02
-3.136304792407233890e+02
-2.271108919762205005e+02
-1.107952930878487052e+02
-5.138311743890601235e+01
-2.720743293069396174e+01
-8.167329168031582753e+01
-7.311996233668826051e+01
-1.927451947928032894e+01
-4.497460462970155248e+01
-3.501982493451868805e+01
-5.911033648684197672e+00
-1.155423480273303838e+01
-1.953710604549764440e+01
-3.979178423883613647e+01
-4.640927304397466457e+01
-9.085098456638580444e+01
-6.808221903570715483e+01
-9.175499842427647934e+01
-1.169745831346154858e+02
-1.045340557411216196e+02
-7.782610230199480839e+01
-1.243529991947346645e+02
-1.287757803715902298e+02
-1.405737452433996282e+02
-1.220170892835180041e+02
-1.279827521727725212e+02
-1.961969557874746783e+02
-2.431046810207367912e+02
-2.454444939165105666e+02
-1.750802323636457913e+02
-1.519961501512518112e+02
-1.776317281552047120e+02
-2.375021208473850436e+02
-2.543536705961963094e+02
-2.064782583880990217e+02
-1.743810151455252537e+02
-2.036801013219105982e+02
-4.285223742453969180e+02
-5.208426860128654425e+02
-4.464725848970608126e+02
-2.906883524358087243e+02
-1.963314675985293434e+02
-1.816576046475109933e+02
5.934211729513481970e+01
2.705490690182332401e+02
5.859490291788850413e+01
-1.686249078866935491e+01
-1.084564417015484423e+02
-1.060689440611214849e+02
-7.931422773285113692e+01
-1.516319097090321861e+02
-1.188499609107513209e+02
-2.064973853414297196e+02
-1.950710005368902955e+02
-1.201641345518142145e+02
-3.807248582211138910e+02
-4.527248136690554361e+02
6.691120369425686931e+02
2.747342936947979979e+03
3.936536397579425739e+03
4.641113581962103126e+03
3.001099085359561741e+03
8.567046157995092699e+02
-1.271432483213908426e+02
-2.480698901865164601e+02
-3.308737705178239139e+02
-3.532445378202822326e+02
-3.580967940880641436e+02
-4.694228127215193354e+02
-3.455944312282455826e+02
-3.593308663083395231e+02
-3.855625248656465374e+02
-2.653120576645176243e+02
-2.875777811778186788e+02
-2.047503253701111987e+02
-2.276111715066726049e+02
-2.573339955485154746e+02
-1.912570931922112720e+02
-2.185870559722939959e+02
-2.225374411751077162e+02
-2.358015271827783579e+02
-2.513287724725191481e+02
-2.145412603465509278e+02
-2.806286329154057739e+02
-2.675051961590512519e+02
-3.085122742892563679e+02
-3.409321372070057237e+02
-3.356685775851343578e+02
-3.406326797725560596e+02
-3.430055585155851077e+02
-2.570873897869159919e+02
-1.694426098259775699e+02
-1.601074099870090208e+02
-1.447358761365778150e+02
-1.278493263645808469e+02
-1.325113292216340142e+02
-1.125627487788952976e+02
-1.246488956572614200e+02
-1.687086036156149191e+02
-1.399784025970614607e+02
-9.158587774326807107e+01
-1.095173042446311484e+02
-1.379198375384645772e+02
-1.077371479217426042e+02
-5.648017684475198763e+01
-6.213402506008439730e+01
-4.892306736019299507e+01
-1.032666054807524745e+02
-1.597458130035483350e+02
-6.098936585793937581e+01
-4.462449192492672267e+01
-1.218899756533786700e+02
-1.514340188953585482e+02
-1.508610395580965360e+02
-1.247089278444273361e+02
-1.313538954019025482e+02
-1.397257220592017006e+02
-1.747967063468663582e+02
-1.386707925418099592e+02
-2.186937871361238592e+02
-2.418943795125219935e+02
-2.017835772953500282e+02
-1.790596209285758107e+02
-1.935955589644681538e+02
-2.003284133414823884e+02
-2.345604991611415926e+02
-2.815919931728575420e+02
-3.718341345189542722e+02
-4.505924716685553335e+02
-4.534916656851320909e+02
-3.493069153971271135e+02
-2.161018602514408542e+02
-1.212211671438421945e+02
9.985385867287538630e+00
1.515430332794845469e+02
-4.153118458595682227e+01
-9.411631316450561258e+01
-1.102285765081249878e+02
-9.074934052598071332e+01
-3.329238981851580093e+01
-1.404513701093037525e+02
-6.207849704691525261e+01
-9.630444937982761644e+01
-1.685560717855316852e+02
-2.895952859454588690e+01
-2.034691291751946096e+02
-4.004703993667361601e+02
4.461149751067225111e+02
2.421936095798588212e+03
3.510912369103505625e+03
4.228845004469405467e+03
3.009480840211320356e+03
9.312598582943888914e+02
-9.869295521372345092e+01
-1.651116407112222078e+02
-2.301435640865619234e+02
-2.665115294440646494e+02
-2.264800058030746754e+02
-3.404125383247946388e+02
-2.707663401079143455e+02
-2.921436184908709492e+02
-3.144889747725101188e+02
-2.277698284083059548e+02
-2.907341165813659245e+02
-2.694011294472337568e+02
-2.417893731566846043e+02
-2.335178159324076148e+02
-1.744387559037949416e+02
-2.416814340220433905e+02
-2.092208025140318455e+02
-1.781649132490422858e+02
-1.805511216952893108e+02
-1.442616353483827254e+02
-1.382024658079495225e+02
-1.910713283597709733e+02
-2.211695381187402347e+02
-2.291328134678674076e+02
-2.531645449798851644e+02
-2.669368349275611649e+02
-2.571565903147093195e+02
-2.453226040238290580e+02
-1.810375911471472818e+02
-1.040002113712060776e+02
-9.766184550763883010e+01
-8.137499130298007799e+01
-6.327637467919356595e+01
-7.561861299689107341e+01
-1.073876755416593198e+02
-7.012033362584811869e+01
-3.346069733131157165e+01
-2.360286566025620303e+01
-3.054411626458642104e+01
-7.524634146435172966e+01
-2.670996497846829243e+01
-2.024104110290407732e+01
-5.066069238866732860e+01
-1.996320957663857598e+01
-3.326233048751484489e+01
-6.341894804222285131e+01
-9.066137058037267593e+01
-1.132730763752228142e+02
-1.086441955098774912e+02
-1.101611097842202867e+02
-1.452760001905793672e+02
-1.085824023565632928e+02
-1.389037370102494151e+02
-1.541854143729226507e+02
-1.122063512720706200e+02
-1.026532513121787247e+02
-9.351376395545027265e+01
-9.400777379466771322e+01
-1.152993325308033832e+02
-1.722507916148610434e+02
-1.882743826929875297e+02
-1.629098809622402086e+02
-1.431775909454528914e+02
-2.791021803180346978e+02
-4.275092384627765796e+02
-3.620845613814963713e+02
-2.967624311409438178e+02
-1.769014996354553091e+02
-1.092767894988287054e+02
-2.915818411068574534e+01
1.620888959087856733e+02
7.711442884264111797e+01
-5.011827324612891488e+01
-1.248324972408175029e+02
-2.030258328562367467e+02
-1.224028993411438364e+02
-1.768252647458112676e+02
-1.828521326681548373e+02
-1.310693163389418885e+02
-1.961858540451967485e+02
-1.361138957796362376e+02
-1.600908524170451983e+02
-4.536027189752354616e+02
-2.558949849050756598e+01
1.799264346851930213e+03
3.508877584219696928e+03
4.352319049548708790e+03
3.729022377402456186e+03
1.388157468823897034e+03
2.978842850029047895e+01
-2.697388143327292482e+02
-2.726499775912239443e+02
-3.904141225107143214e+02
-3.693956746519420449e+02
-4.654533394825318169e+02
-4.756549977556998670e+02
-4.204129463598688403e+02
-4.740221798364258916e+02
-3.801001677841356923e+02
-3.848281160945875854e+02
-3.959901956448139231e+02
-3.246476106882984141e+02
-3.604414822701311891e+02
-3.249005328067665346e+02
-2.801241019974609117e+02
-2.634468680506412284e+02
-2.459396478244301534e+02
-2.651548496855836561e+02
-2.201633651541582424e+02
-2.048497560854469839e+02
-2.202409409319287192e+02
-1.708916912183052261e+02
-1.672187916052707806e+02
-1.926750538154016397e+02
-2.151403028291946953e+02
-2.306899979391430122e+02
-1.806427775072823465e+02
-1.297727139378458787e+02
-1.093996691177106015e+02
-1.005319755223727611e+02
-9.887024617322553866e+01
-1.012229790024797040e+02
-1.148633395391953513e+02
-1.421561948674727205e+02
-1.282488403137012369e+02
-6.715952432614099621e+01
-3.385765859712437020e+01
-2.455181507562820897e+01
-4.851932697402418881e+01
-9.115549055677297474e+01
-9.056471231973043245e+01
-9.709738043658300910e+01
-7.919295961443346243e+01
-1.036180599976722192e+02
-1.184170652688225402e+02
-8.914996453454367042e+01
-9.862338171765694028e+01
-1.483157761010294848e+02
-1.578103953018196535e+02
-1.633727899141972273e+02
-1.708893633671850978e+02
-1.801477840083610431e+02
-1.681268848236348390e+02
-1.338225497828002801e+02
-1.541332256166073194e+02
-1.806320582479510790e+02
-1.723438678187030462e+02
-1.770389618772026665e+02
-1.658829896995133595e+02
-1.681235310538048680e+02
-3.154128335216524874e+02
-3.302768517894634783e+02
-2.626991332357612805e+02
-1.148195949429466793e+02
-2.413433463469156237e+01
7.122547488125469783e+01
2.051148460111310214e+02
2.265227207764024229e+02
-2.571214417304749489e+01
-7.202613488898813898e+01
-1.567522595830781427e+02
-1.785613074781126102e+02
-1.855648770392014058e+02
-2.713404871894001076e+02
-2.012438247401417470e+02
-2.323668632980512143e+02
-2.499628758533849009e+02
-1.731652044605476135e+02
-4.634428642765211634e+02
-5.411738333302898809e+02
7.466303556160842163e+02
3.114076566754724809e+03
4.391798900509815212e+03
4.524024721628054976e+03
2.246103041378476519e+03
1.184131851306800058e+02
-5.077296100754863346e+02
-3.382923633968119930e+02
-4.330343530212401220e+02
-4.742655885238593214e+02
-4.677815756720708009e+02
-5.373241580062881440e+02
-4.612161451964226444e+02
-4.826047692460014673e+02
-4.427265243895204776e+02
-3.789069201717715600e+02
-4.142211198164022790e+02
-3.319928387000178418e+02
-3.188507341511187292e+02
-3.272618527256187235e+02
-2.635591961087582149e+02
-2.588413116309645829e+02
-2.070099627123769324e+02
-2.028117074444261050e+02
-1.976607172451303711e+02
-1.315889451446358578e+02
-1.355158351140740365e+02
-9.473885401402752393e+01
-6.369860752530826176e+01
-7.288122490429418576e+01
-6.083901011744102050e+01
-6.975827244860894893e+01
-5.846634230677747723e+01
-3.600574469221833596e+01
-4.744161986084278482e+01
-4.885934716110073595e+01
-5.359647845210606931e+01
-1.172914125497141100e+02
-1.687781274343508358e+02
-1.799307955191725625e+02
-1.865492266640653156e+02
-1.368706205333687080e+02
-1.189336993797329001e+02
-1.078202834278356761e+02
-1.037478887437551975e+02
-1.187285549617062372e+02
-1.049050098456720974e+02
-1.155615026505969780e+02
-1.416994182441892747e+02
-1.380531902065409326e+02
-1.392006729983462492e+02
-1.613857650543033060e+02
-1.867398395115889969e+02
-2.125560096218392232e+02
-2.344772282909914054e+02
-2.263523854817904635e+02
-2.434119040930569327e+02
-2.335897027263854113e+02
-2.540087731203182386e+02
-2.456836329967140387e+02
-2.563328635365221544e+02
-4.325204930153416285e+02
-4.300217514168014645e+02
-3.249604354406354219e+02
-1.867670849217443561e+02
-7.010188320682048868e+01
4.730914204391304878e+01
1.666452528332977749e+02
1.526386656405706503e+02
-1.001075039999023488e+02
-1.524290219260840047e+02
-2.340936726491230218e+02
-2.402239397516645738e+02
-1.942597516268872653e+02
-2.628131465345009588e+02
-2.290088230606210971e+02
-3.005262183952640953e+02
-3.167644223666059702e+02
-2.558231541752313660e+02
-5.875072987147732420e+02
-7.759264244287122665e+02
5.506722642355786093e+02
3.210485519653640495e+03
4.821624600282637402e+03
5.029788443687904874e+03
2.552046816505804600e+03
1.332935193497310138e+02
-4.995118303806732456e+02
-2.737805396706581291e+02
-3.689283536853868100e+02
-4.320697138595152182e+02
-4.053108461687244244e+02
-4.592788424613673328e+02
-3.606956063556143022e+02
-4.005776376814333730e+02
-3.944922850091827513e+02
-3.370404389544506216e+02
-3.840085379054038413e+02
-3.102274995865852816e+02
-2.792903288815429050e+02
-2.803071650398682664e+02
-2.092701187869927253e+02
-2.333740601792226244e+02
-1.800768417839012159e+02
-1.349501984840306932e+02
-1.358368880764292044e+02
-6.869177495975566217e+01
-5.419882376843084870e+01
-2.518979870483194361e+01
1.790642002194854143e+01
8.025749420975301973e+00
3.696986317516181231e+00
2.101154707013215273e-01
4.561516773290678373e+01
7.576577502757928073e+01
5.944498694368839153e+01
1.063158658908118781e+01
-6.964201724104322011e+01
-1.462929721770662468e+02
-1.850143608436640932e+02
-2.135772052497095785e+02
-2.246324926022626869e+02
-2.143469786782575284e+02
-2.067649596414488826e+02
-1.956407284474365156e+02
-1.828867773480872074e+02
-1.706622480799786103e+02
-1.738387974117057979e+02
-2.000982343955359681e+02
-2.208584834134273081e+02
-2.136443979484114948e+02
-2.190883075782173535e+02
-2.205464317256114839e+02
-2.279801877253860880e+02
-2.701522648626207115e+02
-2.757278415875371138e+02
-2.933428529194850398e+02
-3.075616153730659335e+02
-2.864298582713720407e+02
-4.081761185189934622e+02
-4.283974820971731106e+02
-3.158852951067895560e+02
-1.605690321381616172e+02
-4.263783318831413993e+01
5.768933968853065153e+01
1.589383403358283999e+02
2.188113256360275614e+02
-9.787781624362735045e+01
-2.124877220647293825e+02
-2.957256020404190053e+02
-3.389851418505119227e+02
-2.758352619129418599e+02
-3.570978299529827495e+02
-3.373194554248593704e+02
-3.609557778570464279e+02
-4.098175062098253534e+02
-3.199925456158899806e+02
-5.750065013433190870e+02
-9.898384811389097422e+02
-8.394201291349816074e+01
2.579987538364070133e+03
4.588720007704586351e+03
5.309310826438714685e+03
3.333281618009435533e+03
5.432726108636437630e+02
-4.934623185947975799e+02
-3.244411528575409420e+02
-4.123215129189977119e+02
-5.297105417127975215e+02
-4.886020980224709547e+02
-5.733536655875354882e+02
-5.283857628710163681e+02
-5.160572903969476783e+02
-5.322454327821048992e+02
-4.496202626471677490e+02
-4.569264673593571047e+02
-4.073168629362256183e+02
-3.630411800932723736e+02
-3.560491481532880584e+02
-2.529168012345425893e+02
-2.134134225691475990e+02
-1.661866668551605244e+02
-1.187014618324262045e+02
-1.077001175377266264e+02
-6.224931441834579005e+01
-4.525186340706886057e+01
-2.010472282922993514e+01
1.433224394253750944e+01
1.550759438691809322e+01
4.784722937929585385e+01
5.339154805678357718e+01
8.742508423065828538e+01
1.030302136025417354e+02
8.781248177722220305e+01
5.464596484177869229e+01
-2.024743317877138793e+01
-7.412871832130437610e+01
-1.130237568042618790e+02
-1.382161735367928372e+02
-1.598694432272931749e+02
-1.914980605424006228e+02
-1.736291793183856669e+02
-1.515943072019127555e+02
-1.342216608190357192e+02
-1.466192492267085470e+02
-1.481135021149916042e+02
-1.311689909024524354e+02
-1.564916266630593213e+02
-1.623723444553764637e+02
-1.826440311923303739e+02
-2.059931899304961860e+02
-2.330542986403908685e+02
-2.563491113140443076e+02
-2.885129049516033319e+02
-4.240353323738597169e+02
-4.221264224581983058e+02
-3.227861341006038742e+02
-2.013158885833894090e+02
-6.007655383814231698e+01
2.963027738962537683e+01
1.093082079095598971e+02
1.045891250403204253e+02
-1.656641335862861411e+02
-2.059041628509993416e+02
-2.729982200147794629e+02
-3.156778871661354060e+02
-2.683168573012786169e+02
-3.584416789223741375e+02
-3.422729403377147719e+02
-3.650160167101164461e+02
-3.931294931196349580e+02
-2.989873778502030746e+02
-6.071569220180986122e+02
-9.792876899041469869e+02
1.185073600674998602e+02
2.833072857085642681e+03
4.604596421850656043e+03
5.110807242070605753e+03
2.984387185178150958e+03
3.586450132840291189e+02
-5.197031040723476281e+02
-3.309219745507060111e+02
-4.457901903138611601e+02
-5.393271128612242364e+02
-4.912844520125398162e+02
-5.723881439458443765e+02
-4.870884310206977830e+02
-4.836477040735734931e+02
-5.144187513066623296e+02
-4.554835470970629103e+02
-5.024807022477710916e+02
-4.309191308245920595e+02
-3.869232495655941761e+02
-4.037679292899709935e+02
-3.229308889702896295e+02
-3.196080046278383406e+02
-2.915049322620223506e+02
-2.390622244833908212e+02
-2.323448337456967749e+02
-1.707797624670780010e+02
-1.533021087993164429e+02
-1.143157032091948082e+02
-8.654990969527719358e+01
-1.131118551087719766e+02
-8.653124492100759824e+01
-7.681779613543160679e+01
-4.072840990126205440e+01
-6.125215268321014150e+00
-1.259427836016184798e+01
-1.430219705522626583e+01
-6.621188773134569772e+01
-1.363129894428732314e+02
-1.909601664839629223e+02
-1.977389579022608928e+02
-1.615125032240022165e+02
-1.276165875266190142e+02
-1.389731628706571769e+02
-1.661126074161580846e+02
-1.289555720606383034e+02
-1.037053675203739544e+02
-1.137103805971356962e+02
-1.086085654163305350e+02
-1.622284522423167346e+02
-1.416830545965092938e+02
-1.364238299213651544e+02
-1.737443849562818059e+02
-2.252736579596861191e+02
-3.672018096360968116e+02
-3.545483207765628890e+02
-2.767364965437473074e+02
-1.713158077673022603e+02
-4.697302725155759617e+01
3.620105537465092027e+01
1.183396902692522019e+02
9.900247616688572805e+01
-9.394056702394902914e+01
-1.220818293522263360e+02
-1.935772812505602190e+02
-1.936292116755321899e+02
-1.476902448467789100e+02
-2.204896424239292401e+02
-1.620739281498513265e+02
-2.354835396790045934e+02
-2.465664134289182812e+02
-1.661366057421945754e+02
-5.459800515116808128e+02
-8.320730159212902208e+02
4.222485938539705330e+02
3.111408016407229752e+03
4.797853394622949963e+03
5.037613286137330761e+03
2.649181551336156190e+03
2.560993061004456308e+02
-4.404875381856635386e+02
-2.907511170047010864e+02
-4.021341707313161464e+02
-4.716424716616839987e+02
-4.372321789615880334e+02
-5.156149542609723539e+02
-4.714176490830494686e+02
-5.176573838410628241e+02
-4.952692670060797013e+02
-4.322919212003731673e+02
-4.727068314560744398e+02
-3.844107756226372317e+02
-3.654685910586206887e+02
-3.583429544770213511e+02
-2.709025636920853231e+02
-2.738540447787624998e+02
-2.561949461402484189e+02
-2.185951066066716919e+02
-2.193645231386026921e+02
-1.742674684643640717e+02
-1.210615595315689461e+02
-9.875670179384765390e+01
-7.718791583673480261e+01
-1.090267436138412904e+02
-1.102418699472720505e+02
-7.164540692030210778e+01
-4.465128144466505233e+01
-1.630690245426931284e+01
-2.877843426019829565e+01
-6.509228098800653584e+01
-1.246388539150498360e+02
-1.863663853743461516e+02
-2.165118460901435071e+02
-2.078460673781120249e+02
-2.365628324967950675e+02
-2.278979596153928071e+02
-1.978687463339977342e+02
-1.821931216816153096e+02
-1.979925678090941403e+02
-2.151733717146882157e+02
-2.262541908870355769e+02
-2.173538698082853955e+02
-2.031604005174412748e+02
-1.952683385639633400e+02
-2.242967713803776064e+02
-3.826688755378021938e+02
-4.257685378016421964e+02
-3.861578724994603249e+02
-3.223131281908403025e+02
-1.700190544475489389e+02
-6.684122859255234061e+01
1.942846706375588894e+01
6.538563832888128502e+01
-1.263347126211590137e+02
-1.823587011312517348e+02
-2.347340958603724062e+02
-2.425648725995548602e+02
-1.773719926781730294e+02
-2.493495464616723325e+02
-2.033588976131984225e+02
-2.070021117508478596e+02
-2.754505446393166039e+02
-1.954921059286865841e+02
-4.031483289655784006e+02
-7.624701010746254042e+02
8.791050852074135946e-01
2.364698913083567277e+03
4.176247401247836024e+03
4.984895977110913009e+03
3.340035896645944831e+03
7.544445627976123205e+02
-3.234111233634604332e+02
-2.712089017805406002e+02
-3.669889948332593121e+02
-4.691021124402427063e+02
-4.074425547438116268e+02
-5.175174625901676109e+02
-4.908050826973702101e+02
-4.820632705210751396e+02
-5.114682570182937411e+02
-4.248370701148095350e+02
-4.214490439983354690e+02
-3.552207791653617051e+02
-3.068529480346537639e+02
-3.179617914710972286e+02
-2.347560718448600312e+02
-2.516589522836823392e+02
-2.641670738337397779e+02
-2.237135055471786700e+02
-2.152908662288579080e+02
-1.906754049882831907e+02
-1.614774231433185605e+02
-1.127697321818563694e+02
-1.168097229396729375e+02
-1.458893041569100433e+02
-1.652167988159763183e+02
-1.730688271670563836e+02
-1.776781507101188993e+02
-1.816194851994031580e+02
-1.403719844273587114e+02
-1.270079350645320062e+02
-1.381483525692232774e+02
-1.440454594525450034e+02
-1.912246221809486997e+02
-1.784426226973436940e+02
-1.793175521651802171e+02
-2.297544076687156860e+02
-2.027247902641949224e+02
-1.874269541874688798e+02
-1.899191028852366685e+02
-2.138395466165900700e+02
-1.988238970595315038e+02
-1.736762331454944785e+02
-1.759112584539300599e+02
-2.186078363777614868e+02
-2.767308819580198360e+02
-2.916844098984591938e+02
-4.334189337828317434e+02
-4.534669473822764871e+02
-3.952097448912984419e+02
-3.577600050057067165e+02
-2.183373791340513321e+02
-1.259367924014117364e+02
-9.159156588874086680e-01
9.679908773732429950e+01
-9.714304471720889467e+01
-1.497829193079602419e+02
-1.874447225444293395e+02
-1.861036454632502739e+02
-1.436807817611874611e+02
-2.252021611043003588e+02
-1.599504147146366222e+02
-2.073369626720167673e+02
-2.745411445758292643e+02
-1.796484687724559706e+02
-4.202713702933472177e+02
-6.563636905663306607e+02
4.338710528909533650e+02
2.846429649285711093e+03
4.301688711497887198e+03
5.007700584809264910e+03
3.347809823990777204e+03
8.489443222516108563e+02
-2.046532962768310995e+02
-1.691500418319298547e+02
-2.806179586034546674e+02
-3.952374123272839483e+02
-3.670812082399330620e+02
-4.668444677251865755e+02
-3.906483237763225134e+02
-4.064809952483269058e+02
-4.695192266447976408e+02
-4.216672310034401789e+02
-4.556365116091179743e+02
-4.098974562199928187e+02
-3.741987307178632705e+02
-3.835852249416716973e+02
-2.996215361722856301e+02
-3.234010822928420339e+02
-2.909182875927247665e+02
-2.764362742233593053e+02
-2.921176880264588931e+02
-2.310707541539912029e+02
-2.678811596084171924e+02
-3.143640335114372419e+02
-2.860065792444638646e+02
-2.906563514135016248e+02
-3.358792715202116597e+02
-3.473246700539796166e+02
-3.078331876683899964e+02
-2.333279208202859252e+02
-1.549359456040865268e+02
-1.869440165825112103e+02
-1.927117041666389810e+02
-1.470940511523336909e+02
-1.881763737402380912e+02
-1.953934310510802845e+02
-1.769454210160506307e+02
-1.927110144778951621e+02
-1.713892574179425878e+02
-1.605575166938679388e+02
-1.429324595313497070e+02
-1.628138689472607723e+02
-1.976927407957438163e+02
-1.694484096274320564e+02
-1.877026203390725811e+02
-2.321122068513641068e+02
-2.139252055138704520e+02
-1.754561159594487378e+02
-1.724705523363754764e+02
-1.843575991405884622e+02
-2.971722999874497759e+02
-4.494522099671457340e+02
-4.058676408142438845e+02
-3.533587662582405642e+02
-1.748710496876673233e+02
-2.519490339550988978e+01
5.802577340353836632e+01
1.690560713507568948e+02
7.720121719122724357e+01
-5.574098650785312259e+01
-8.617413754902750611e+01
-1.592075965704586622e+02
-1.163607396305258419e+02
-1.696339464486041777e+02
-2.452816362987871628e+02
-1.854865124470668434e+02
-2.132805120673839099e+02
-9.309289761625514359e+01
-1.783272024392855144e+02
-5.564527335076775216e+02
-7.208106623166787585e+01
1.940321613799005490e+03
3.858252046647447969e+03
4.948023141582991229e+03
4.552169976363447859e+03
2.014868249999713953e+03
2.829836582843257133e+02
-1.727459876602415250e+02
-2.370629261361528961e+02
-4.003749490077574933e+02
-3.476453498842634531e+02
-3.896988524793541728e+02
-4.075205029198090187e+02
-3.656405151467502606e+02
-4.135772698326840100e+02
-3.342212640808660353e+02
-3.373642815561310044e+02
-3.359272638186669724e+02
-2.714447364274130337e+02
-3.389395943729893474e+02
-3.051967528817956463e+02
-2.677555297695197396e+02
-2.940338123914527841e+02
-2.731290454342213820e+02
-2.928944641815338628e+02
-2.595671383703887614e+02
-2.588460523174252330e+02
-3.121143615358236048e+02
-2.954618004789288648e+02
-3.498830891477191471e+02
-3.819374393974705981e+02
-3.916839581924503477e+02
-4.123522407693707237e+02
-3.656554862131901018e+02
-2.920020362136997392e+02
-1.974571093639243884e+02
-1.893516970080173962e+02
-1.495389329590521470e+02
-1.544723550646821479e+02
-1.255563316226551365e+02
-1.229479820158881296e+02
-1.769581288256420351e+02
-1.521550962050032751e+02
-1.126318287169970205e+02
-1.344015927588712316e+02
-1.162726770957481079e+02
-1.243638581166512580e+02
-1.442048480143261031e+02
-1.716277240441223739e+02
-1.522238707811096390e+02
-1.419662320530250099e+02
-1.613213245008200261e+02
-1.678978291499798559e+02
-1.853971037242106945e+02
-1.999031097891195827e+02
-1.635834875651350444e+02
-1.454391751715185990e+02
-1.750869687076700245e+02
-1.886941302058336589e+02
-2.010207898936662332e+02
-2.308498072624786914e+02
-2.189203753969486854e+02
-2.242429144281949505e+02
-2.235907180230153699e+02
-2.272386711624085081e+02
-3.424697925735335389e+02
-5.025720443662876846e+02
-4.644907949948306509e+02
-3.622761466140442508e+02
-1.836999312388440728e+02
-6.732237970157954976e+01
-3.237807273460423119e+01
1.236032794440408509e+02
1.949519038188172004e+01
-1.203033004975418550e+02
-1.287200201605640189e+02
-1.435253470716476158e+02
-7.351292144577341503e+01
-1.621151668389402687e+02
-1.995324477737482027e+02
-9.120449507027495883e+01
-1.744113001799690323e+02
-1.401983959289346160e+02
-2.225833971429084386e+02
-6.359085173846342514e+02
-2.169098509086975355e+02
1.810827150035100203e+03
3.787989945246703428e+03
4.928005053692026195e+03
4.657550389557816743e+03
2.163278695015133053e+03
4.238078471926040720e+02
-9.891760946217651451e+01
-2.061122849502066288e+02
-3.943618678567958682e+02
-3.344837953279097746e+02
-4.173576481799002522e+02
-4.270681315848048598e+02
-3.849359992448881940e+02
-4.313948848846661122e+02
-3.578259605550133529e+02
-3.748604998798956558e+02
-3.690107576722755880e+02
-2.705430965661762457e+02
-3.038980681239194155e+02
-2.642909133703662405e+02
-2.547090291984566477e+02
-3.034855343143534583e+02
-2.968591693400525742e+02
-3.384761268039616198e+02
-3.056678432052173093e+02
-2.916341775777799512e+02
-3.403337894840496460e+02
-3.273562310924137364e+02
-3.564273099558511149e+02
-3.959849124016096198e+02
-4.181474604588738089e+02
-4.308304593716027284e+02
-3.713950165781153032e+02
-2.652718484043869012e+02
-2.046917054104187059e+02
-1.943934326789465104e+02
-1.362813222709533534e+02
-9.079707410462863493e+01
-6.023085769653767585e+01
-8.701093208061058704e+01
-1.200981382997729554e+02
-9.839087881468090302e+01
-6.059535832767397778e+01
-2.185924907246659288e+01
-1.804568609632466192e+01
-9.166961537088811340e+00
4.448175006194681913e+01
2.347136746729567491e+01
-2.952621921309010489e+01
-2.893692516030530015e+01
-7.588360442497211977e+00
-2.163495398064763720e+01
-3.622175836369354585e+01
1.764836398259792460e+01
-7.723929021099832148e+00
-3.539521743550938027e+01
-1.311039273153799556e+01
-9.544866921939384241e+00
-3.165767532093441972e+01
-2.728909541214882140e+01
-3.142535323392709046e+01
-2.684080551028203132e+01
-3.014069639559967584e+01
-7.727624495921453729e+01
-1.249374341517428064e+02
-6.527339790272806397e+01
-5.542755642899575008e+01
-1.151957616986193074e+02
-1.270237824237987923e+02
-1.139363762991764872e+02
-1.310858676253166095e+02
-1.783075584308444377e+02
-1.948425320466919572e+02
-1.872367620839971778e+02
-2.015542071222070888e+02
-3.029119179750002786e+02
-4.775716182930799505e+02
-4.806675335670483946e+02
-4.133586796969496504e+02
-2.649831671216355176e+02
-8.831454999956831386e+01
-2.051319415942423774e+01
1.185835333998514045e+02
1.153637880235501854e+02
-8.502038293245504974e+01
-1.132395976934224961e+02
-1.662635492193854816e+02
-1.154630496579489716e+02
-8.509275399556317154e+01
-1.689488127551469461e+02
-1.473705184683851428e+02
-2.471250062870628312e+02
-2.311847691917766099e+02
-1.598354008302899842e+02
-5.668221358226973052e+02
-6.413364275861259785e+02
8.120090718499951663e+02
3.168184607051826788e+03
4.513956082198357763e+03
4.944377263501522975e+03
2.864082628501284489e+03
6.784413493118371434e+02
-1.618725289155351561e+02
-2.011359034332376723e+02
-3.484668602618257864e+02
-3.928004758711357454e+02
-4.010529204059566268e+02
-4.893327774107165737e+02
-4.139312538792284499e+02
-4.586107809229437748e+02
-4.392132809129556108e+02
-3.658180432376224758e+02
-4.096923894512548827e+02
-3.482776610204384156e+02
-3.550645197405343083e+02
-3.383084856413426564e+02
-2.980618113110683112e+02
-3.212779222857865875e+02
-3.166978832794740697e+02
-3.287093980591910736e+02
-3.121590751520196818e+02
-2.625424281691621218e+02
-2.951925911822264652e+02
-2.978769016720299305e+02
-2.990642996778237261e+02
-3.365019467842646463e+02
-3.333680480406706010e+02
-3.388389438052815308e+02
-2.767354096429032211e+02
-2.067274849988295955e+02
-1.646617504828416259e+02
-9.871873454378828683e+01
-6.247807707303474700e+01
-5.443429832284055436e+01
-3.953580911004675613e+01
-4.369779280581973069e+01
-6.888008919160168375e+01
-6.765408501000813146e+01
-7.613739343769242396e+01
-8.043265473750884098e+01
-6.934525550052187270e+01
-6.476046358521837476e+01
-5.565977959317882551e+01
-2.546038278034797386e+01
-5.652285042323685360e+01
-5.047543665824683501e+01
-2.273017083244321057e+01
-4.007724167590556874e+01
-5.598266047396266742e+01
-9.870934964311541648e+01
-1.260755771025251875e+02
-1.236525141586893994e+02
-1.241815127593799986e+02
-1.172016504444712837e+02
-1.138951300837110523e+02
-1.120448530810810297e+02
-1.240748826922508528e+02
-1.458807237051445895e+02
-1.281063600917428857e+02
-9.218162796384130786e+01
-1.129631315849982371e+02
-1.190516164998039272e+02
-1.126982069636414252e+02
-1.211653279961370799e+02
-1.389865985146470280e+02
-1.440520586165270629e+02
-1.484016290499883439e+02
-1.459660139544908475e+02
-1.576158646854426877e+02
-1.501336568926711834e+02
-1.304099228600792912e+02
-1.462238970748229576e+02
-1.974253011174363337e+02
-1.979391662091946955e+02
-3.459496379372187107e+02
-3.905320681611451050e+02
-3.216068308350289726e+02
-2.024220872563971909e+02
-5.019769021662432351e+01
6.129982775421308361e+01
1.649589744998907861e+02
1.988137011294706156e+02
-1.541302071636710025e+01
-6.553066283620474053e+01
-1.245996030547768214e+02
-9.419050430611494562e+01
-4.239218996833807296e+01
-1.299143227012332034e+02
-6.351732462830865700e+01
-1.175411124604552526e+02
-2.167271100638945711e+02
-1.330168002904696891e+02
-4.691710259863916690e+02
-8.163675371740561104e+02
1.932104564103737800e+02
2.759345100898960482e+03
4.509498026973478773e+03
5.230265439382908880e+03
3.388164193548448111e+03
8.435582629791238105e+02
-2.052039958730689477e+02
-2.695776670554646444e+02
-3.761804095318262853e+02
-4.315404720572485644e+02
-4.055058594068805178e+02
-5.082551522342541261e+02
-4.414121788165407452e+02
-4.124593616301831389e+02
-4.273411661336368752e+02
-3.325900334094829986e+02
-3.682484379377183927e+02
-3.238392087582051886e+02
-3.123569009480702903e+02
-3.203170646922388869e+02
-2.651934210048451632e+02
-2.699677998568500925e+02
-2.336657903248939760e+02
-1.911027213742256095e+02
-2.115527669999714817e+02
-1.542175660776305506e+02
-1.844247435158359281e+02
-1.865692674915697467e+02
-1.646053008571107910e+02
-1.727224851187753529e+02
-1.926936122119099082e+02
-2.175849302618223930e+02
-2.179655133034157757e+02
-1.690846396447814470e+02
-9.330540352624115030e+01
-3.200814906137050997e+01
-1.327540051929245024e+01
-3.942705030069362238e+01
-6.637383286966343121e+01
-8.231543869520176315e+01
-8.001434323784529568e+01
-9.280734534881273134e+01
-1.092686979636339828e+02
-9.501633534720663476e+01
-7.319642706860382475e+01
-5.826347037542139873e+01
-6.193398116335622205e+01
-7.604958470846281671e+01
-8.730827666032999446e+01
-7.899190772783288139e+01
-7.743160685227954332e+01
-8.835441718636798214e+01
-8.312239434674086169e+01
-1.037852588698703471e+02
-1.098718267123312557e+02
-1.158187939643663498e+02
-1.153255160302782087e+02
-1.319854438448847418e+02
-1.359737329334590754e+02
-1.260306318242307952e+02
-1.605430048897086124e+02
-1.834733425128395368e+02
-1.766834942162146831e+02
-1.823940773270456361e+02
-2.032927618665795535e+02
-2.244357299731198907e+02
-2.174066343415432812e+02
-2.084249147682582191e+02
-2.194610635007146868e+02
-2.172549412724403624e+02
-2.173211277995017667e+02
-2.348023818518175858e+02
-2.447102061396959414e+02
-2.397141049649674756e+02
-2.430853930345689093e+02
-2.320531232962075592e+02
-3.598041574562801657e+02
-4.154321850546321002e+02
-3.213314639769817518e+02
-1.806117537753857505e+02
-4.349175372008630802e+01
4.967491396902209999e+01
1.300820781193365008e+02
2.255978075876885214e+02
8.443213048072507831e+00
-9.669712772304856685e+01
-1.424266318843511669e+02
-2.044969007842415181e+02
-1.459072560460568582e+02
-2.148280505912844944e+02
-2.192063056037140711e+02
-2.119741345725102235e+02
-3.068767858331980278e+02
-2.143941002060340111e+02
-4.269006676314991182e+02
-9.993717234309880268e+02
-3.939609171285549110e+02
2.188446707875674292e+03
4.502763589526828582e+03
5.553086668713086510e+03
4.132036169359545966e+03
1.167263098695407962e+03
-2.402893506319917947e+02
-3.166759621253285104e+02
-3.530455180899564880e+02
-4.705956009064396426e+02
-4.167008331503247405e+02
-5.073889108417035345e+02
-4.870582115034312665e+02
-4.514865783759429405e+02
-5.184482976567263677e+02
-4.477930497111869954e+02
-4.693666165157328010e+02
-4.292319487484559204e+02
-3.614802344369155094e+02
-3.655052844430823598e+02
-2.641775239906863817e+02
-2.408246302397503769e+02
-2.092909288621626445e+02
-1.665916126534196735e+02
-1.911176414930536680e+02
-1.433958623535048673e+02
-1.044112746617280436e+02
-1.053629621983780851e+02
-6.869527718160485108e+01
-5.242282560226892940e+01
-2.185634065900612200e+01
-1.235275395201011861e+01
-2.263048607733515283e+01
-3.434068009871257487e+00
3.414204790359540453e+01
3.526330360389630414e+01
3.069226893616418295e+01
7.845537102419967823e+00
-5.302354936694592880e+01
-7.473346533284492921e+01
-8.927879466026720934e+01
-9.018471277278547404e+01
-1.002867889068102585e+02
-1.145265214156175517e+02
-8.991350027990874594e+01
-7.451282372488333294e+01
-9.338152528991014378e+01
-8.235506781730977366e+01
-1.054539933022762455e+02
-1.087393914647502982e+02
-1.366972301205598797e+02
-1.518655462832225567e+02
-1.397909751903424365e+02
-1.453940785274203336e+02
-1.630582736539084863e+02
-2.020203168921823078e+02
-2.428801583529735240e+02
-2.520802163386028667e+02
-2.618124897585514645e+02
-2.588084524002283615e+02
-2.587965983424260799e+02
-2.729525005355388885e+02
-2.793669915619877884e+02
-2.656040364330616512e+02
-2.589550223218536189e+02
-2.594634246074049315e+02
-2.694446829986054581e+02
-2.640812367431652774e+02
-2.606544665887573728e+02
-2.645411672089620652e+02
-2.480365919758516782e+02
-2.604261603048225879e+02
-3.913258271595777273e+02
-3.725914920984571381e+02
-2.493657141124450618e+02
-8.116036641582260813e+01
5.181534573006911160e+01
1.090734365484509425e+02
2.128927981117254262e+02
2.266865806632550289e+02
-6.736491859100718216e+01
-1.624135195954171422e+02
-2.209860511149702802e+02
-2.236181767259947719e+02
-1.787383986257253810e+02
-2.747233736260781143e+02
-2.439331263142372279e+02
-2.922704827039095221e+02
-3.300204602201545185e+02
-2.543431168269750344e+02
-7.152727861814435073e+02
-1.116586532402255671e+03
2.206990242106324160e+02
3.302504101150256702e+03
5.355117430534086452e+03
5.735661104395143411e+03
3.236030144769239541e+03
5.114236583525176911e+02
-3.722882614334174605e+02
-2.869399904261481424e+02
-4.271524686709769298e+02
-5.017082419526149693e+02
-4.686624188311979538e+02
-5.439546361347448737e+02
-4.615914597724369060e+02
-4.694033127718491869e+02
-4.730674423250804921e+02
-3.967242956985605247e+02
-4.502829401459035239e+02
-3.667284411319063224e+02
-3.197540804560891274e+02
-3.075139436853619372e+02
-2.270197857417701073e+02
-2.435629588347770209e+02
-2.152373889878505508e+02
-1.840650765122722419e+02
-1.853969083285048214e+02
-1.245567759493004587e+02
-9.484379403559677257e+01
-6.052159489926803104e+01
-4.170907574763233328e+01
-3.355369677138487816e+01
-1.438844234071422434e+01
-1.169274512416267697e+01
-1.201666780832429282e+00
5.154909108012635244e+00
1.712382201001991433e+01
4.484128096964547616e+00
-9.070583047174864078e+00
-4.926352925189735288e+01
-1.102105024360296852e+02
-1.335741659218446102e+02
-1.555172452712258746e+02
-1.574935351267196211e+02
-1.405363335718060398e+02
-1.548598015042176428e+02
-1.481101236040311733e+02
-1.423153771081017567e+02
-1.549007729468225421e+02
-1.538754439909193934e+02
-1.867957442564942028e+02
-1.475452466423891735e+02
-1.424256013259824840e+02
-1.620385791985534354e+02
-1.710106185427764842e+02
-2.016912278318333733e+02
-2.131832933657541957e+02
-2.186530709728854447e+02
-2.285404276156918399e+02
-2.309553538910951147e+02
-2.546655957902972034e+02
-2.717256827015944509e+02
-2.850166184616848000e+02
-2.898245368073755799e+02
-2.940712657888063859e+02
-2.898389928641575466e+02
-3.062982710323512947e+02
-3.096713735700980124e+02
-2.777408651879540571e+02
-3.772016875754247849e+02
-4.151294830692975779e+02
-3.247035987897689324e+02
-1.759420713157550153e+02
-4.344592828743382995e+01
5.743739073306763032e+01
1.611260978583036945e+02
1.971810829273030663e+02
-9.809688549186499529e+01
-2.056767576987169832e+02
-2.559652113504250792e+02
-2.824014723599529475e+02
-2.243269080335503531e+02
-3.199077777479180327e+02
-2.828395541885084867e+02
-2.960712334640871291e+02
-3.555569383419958740e+02
-2.546354392707457350e+02
-5.865446466934017735e+02
-1.139223492904571003e+03
-2.255059858388014504e+02
2.708464327530332412e+03
5.090842331085401383e+03
5.959636941232773097e+03
3.989987776981440220e+03
9.762084520966293439e+02
-2.611052216663967442e+02
-2.719660945817030324e+02
-3.767061611363234306e+02
-4.992345545614167577e+02
-4.391613026034650602e+02
-5.433661053722877341e+02
-5.039423096820273145e+02
-4.977199172977101966e+02
-5.301311516679617171e+02
-4.303616386621808374e+02
-4.499518804502415037e+02
-3.764663508005625658e+02
-3.328266937583758818e+02
-3.581723520320497869e+02
-2.905711664862320163e+02
-2.855202984393523593e+02
-2.603994247095137666e+02
-2.121989461051287833e+02
-1.968389427752802305e+02
-1.305658285821797051e+02
-6.498622476495026490e+01
-4.183352693532224720e+01
-7.586024535961648496e+00
-8.734102563639137173e+00
-1.333579216322624106e+00
1.536139805736911512e+01
3.045267547772175476e+01
3.092300341903640515e+01
3.840589663896508910e+01
2.504447104601478102e+01
1.198563316900716558e+01
-3.972383191415328696e+01
-9.961699909762337768e+01
-1.163034271480141939e+02
-1.385028087390369933e+02
-1.623925753566617800e+02
-1.766251446281743256e+02
-2.092338599727260373e+02
-1.863201286171275228e+02
-1.956152445938052722e+02
-1.934983895717295468e+02
-1.711288374132352601e+02
-1.973749045663350898e+02
-1.990667875265408213e+02
-2.079545487533881669e+02
-2.205802648156094676e+02
-2.317453368956664690e+02
-2.567327234004718548e+02
-2.832236603676893765e+02
-2.992685236092535774e+02
-2.933757018263603413e+02
-3.087470287411068739e+02
-3.205789664398416789e+02
-3.343925490870031467e+02
-3.194124737589277743e+02
-3.134420552911207665e+02
-3.205059426212068843e+02
-3.039599400825892985e+02
-4.229918178574551462e+02
-4.748335156244934296e+02
-3.526647639105433996e+02
-1.778514868770606085e+02
-5.284052581124092285e+01
4.610297501703043110e+01
1.532750189902206728e+02
2.148192254620863366e+02
-7.341100299609448143e+01
-2.325634402314730949e+02
-2.808142346797535538e+02
-3.096130518059104588e+02
-2.395778674752778556e+02
-3.128269465707488735e+02
-2.975698275985257055e+02
-2.734854898074790981e+02
-3.416976820871079781e+02
-2.613520589150459728e+02
-4.899045137065621702e+02
-1.088245899785852998e+03
-4.872519205407929803e+02
2.188817881388651131e+03
4.761744399606917796e+03
5.929279382243132204e+03
4.465161068348459594e+03
1.390891024487596042e+03
-1.431048022501807111e+02
-2.741615786519222411e+02
-3.236181798531100640e+02
-4.720820905550825159e+02
-4.482948385998500385e+02
-5.351303602377083735e+02
-5.232459601998086782e+02
-4.804588863036992734e+02
-5.146057472516395137e+02
-4.356613402168936204e+02
-4.517416289886002687e+02
-4.363980214023775375e+02
-3.636745535862152678e+02
-3.745997399206879095e+02
-3.154452750086044830e+02
-3.003702573352958325e+02
-2.730672837885998661e+02
-2.032480487152888315e+02
-2.049447477775431707e+02
-1.541022101837762648e+02
-1.086542553144123389e+02
-7.284001382550786730e+01
1.053223087031867067e+00
2.279654508585574035e+01
2.162545298176819841e+01
7.974190465895448554e+00
6.881583782851425468e+00
5.469958523522723937e+00
6.379524493259214779e+00
1.191859571075425173e+00
-1.630116468370060190e+01
-6.748791364145904481e+01
-1.087893717940685576e+02
-1.361797306722405665e+02
-1.665601536799483142e+02
-1.699705326242359433e+02
-1.406627983267846105e+02
-1.732468880106895313e+02
-1.601053780237328965e+02
-1.693419340248689480e+02
-2.215019524880547408e+02
-2.071830426566848757e+02
-2.137772830344379997e+02
-2.072658470972935447e+02
-2.010234231605811033e+02
-2.124087692466087276e+02
-2.227309780939699237e+02
-2.466173795809111766e+02
-2.550570987412324371e+02
-2.510158022825751232e+02
-2.444115829753227445e+02
-2.696536032167666690e+02
-2.889090673761537573e+02
-2.901092642980828487e+02
-2.629374232220036447e+02
-2.809029339385112962e+02
-4.350644533023594818e+02
-4.460938033023553544e+02
-3.323053080456115822e+02
-1.667007700638423273e+02
-7.003131252438572574e+01
7.661108653088578357e+00
1.082449990634429184e+02
1.081170740126311642e+02
-1.347921416528253644e+02
-1.445220384505647644e+02
-2.215527725704996271e+02
-2.460593669351410711e+02
-2.168030043323187783e+02
-3.118578688586226235e+02
-2.504680565646553418e+02
-2.738069476191146805e+02
-2.897019137604162893e+02
-2.430503964243883388e+02
-6.786118071132615341e+02
-1.014904777655936300e+03
3.245179608518739656e+02
3.287981310602090161e+03
5.331742164345974743e+03
5.765500163254854670e+03
3.298568059550803810e+03
6.090871549758024912e+02
-3.065690605084133722e+02
-3.133108116425061667e+02
-4.538175045388846911e+02
-5.087691141930949925e+02
-4.836195850567827392e+02
-5.793321365248062875e+02
-5.084136737048617647e+02
-5.476789039558245804e+02
-5.467819927372992197e+02
-4.498265564916999892e+02
-4.880283478718483821e+02
-4.278835845101748419e+02
-3.808601964181563631e+02
-3.743258721555280886e+02
-3.068735774553098850e+02
-3.015065741377008521e+02
-2.676157129044761405e+02
-2.581077025083640137e+02
-2.417205943395937027e+02
-1.651684083481570156e+02
-1.537090465197115918e+02
-1.075764963903216227e+02
-6.242739688449734103e+01
-4.470308620739334771e+01
-3.905797888192562084e+01
-7.774854120372134503e+01
-6.024595534075520931e+01
-4.517026880022586255e+01
-6.889259821237560288e+01
-7.155293176920956455e+01
-9.387322975762906196e+01
-1.171112966662827546e+02
-1.233982237793007215e+02
-1.349148230882883581e+02
-1.475072476546475855e+02
-1.776885594959431955e+02
-1.754508685483893657e+02
-1.671962887368658244e+02
-1.558466316356274319e+02
-1.585116116867145024e+02
-1.965185729546917059e+02
-1.847462489649800261e+02
-1.720395095327075126e+02
-1.839103156750539085e+02
-2.164847077398618751e+02
-2.235752011940653858e+02
-2.056494741569404994e+02
-2.282154572559934991e+02
-2.585882230629853780e+02
-2.931198906824523078e+02
-2.851294279219895884e+02
-2.726338210033752603e+02
-2.898557422361765248e+02
-2.422890365469084202e+02
-3.389851329283843029e+02
-4.293299111155828314e+02
-3.891077632895417651e+02
-3.193125409218753816e+02
-1.556726873461478249e+02
-6.289775759236820818e+01
4.329189261407202594e+01
1.667141057746449633e+02
4.050401526003021502e+00
-1.348214064773987104e+02
-1.956561680221888082e+02
-2.701981752780753823e+02
-2.085239213732452583e+02
-2.763674308380374782e+02
-2.772388058959273280e+02
-2.490477434562216104e+02
-3.392526317061249301e+02
-2.540054111305067295e+02
-4.129214949251037865e+02
-9.280357490146703867e+02
-3.232207451040557658e+02
2.173710231178421964e+03
4.460005138994696608e+03
5.682268908071400801e+03
4.625285432650971416e+03
1.721192453146487878e+03
7.689258100706507548e+01
-2.512040653153276253e+02
-3.396662408463982956e+02
-4.688620964985711339e+02
-4.517589445091974767e+02
-5.796553394658401430e+02
-5.416901515074885083e+02
-5.049589715063598305e+02
-5.626839065405155225e+02
-4.705327077752796754e+02
-4.759153012374572995e+02
-4.386298157971896217e+02
-3.894675070946838105e+02
-4.174912315301367585e+02
-3.285222209436598177e+02
-3.263235403634582781e+02
-3.508603970929884781e+02
-2.945375893082244261e+02
-2.814563309951848282e+02
-2.456468107629110307e+02
-2.247521449766936144e+02
-2.010729370659386461e+02
-1.606661182322286550e+02
-1.825226420212435414e+02
-2.098004402228608285e+02
-2.014317568111801791e+02
-2.132338638698993520e+02
-2.013420169712295831e+02
-1.728102699894170939e+02
-1.275092582261597158e+02
-1.071824754381307372e+02
-1.460189313415784795e+02
-1.120542300688787662e+02
-1.202326053326722075e+02
-1.539498300749693840e+02
-1.596300161257877051e+02
-1.569394509098712547e+02
-1.436366359367197845e+02
-1.384603941715255928e+02
-1.592824658846221837e+02
-1.578316301347645663e+02
-1.230633814387141314e+02
-1.505651691028404286e+02
-1.384148025533484372e+02
-1.618815942708517355e+02
-2.282297147809491946e+02
-2.247987185458465831e+02
-2.021173052949313842e+02
-1.764615544728233658e+02
-1.716439039250657572e+02
-2.146274468332692038e+02
-1.864830668471475690e+02
-1.714384858003373324e+02
-2.292121055270000056e+02
-2.583474394043770417e+02
-3.657661352918252646e+02
-4.796550391766060670e+02
-4.684212439052399759e+02
-3.202712685059506725e+02
-1.282909085772031119e+02
-7.161800255009453053e+01
1.071759917248634864e+01
1.551062874080301413e+02
1.220483077736306399e+01
-7.212499993288616906e+01
-1.600746458361873863e+02
-2.115258437402565903e+02
-1.052449031738251506e+02
-1.879697667195804911e+02
-1.851700745789456732e+02
-1.975991932170924770e+02
-2.948279343983205081e+02
-1.822438263323967362e+02
-3.495278218567859767e+02
-8.033037743490314142e+02
4.412182514446485015e+01
2.425799170079250871e+03
4.322718815497062678e+03
5.493846176572921649e+03
4.495915579645082289e+03
1.707349026543932723e+03
1.491774965038034679e+02
-1.787521064278342351e+02
-3.427456984799141537e+02
-4.591363340855494926e+02
-4.057027377120318192e+02
-5.151727295281136776e+02
-4.640694791957685084e+02
-4.217273479410462755e+02
-4.728079769751256549e+02
-4.005999302979074059e+02
-4.364249496037826361e+02
-4.081537170380093471e+02
-3.374968494172892406e+02
-3.760676606969333875e+02
-3.491088790253215848e+02
-3.333696749497256064e+02
-2.768892202068448114e+02
-2.451947718179608842e+02
-2.550840407973764457e+02
-1.961711908235533883e+02
-2.034602294716167705e+02
-2.469638450746838885e+02
-2.480416086035135379e+02
-2.965734059011394379e+02
-2.909458157142414620e+02
-2.834568306097507957e+02
-3.215863452969450691e+02
-2.866941389919271046e+02
-2.293566395278301115e+02
-2.158874189656874591e+02
-1.685228697481834956e+02
-5.874142624981836036e+01
-4.909616825882616808e+01
-1.297696601800469409e+02
-1.113994917443898061e+02
-1.112119093013522644e+02
-1.216884558359571002e+02
-1.379653721619127964e+02
-1.553758860697307114e+02
-1.116236164401719435e+02
-9.682826443706061070e+01
-1.072100628798965545e+02
-1.435518770342527830e+02
-1.508383938083923113e+02
-1.631524146804110842e+02
-1.789879565417856782e+02
-1.813700303080595688e+02
-1.538930782566715436e+02
-1.857085306827422926e+02
-2.220510145458589761e+02
-2.308046908024643642e+02
-2.401245278685460960e+02
-2.738367538211609826e+02
-2.442386092011602727e+02
-2.461521165200040855e+02
-2.753196581645519245e+02
-2.603305783888972655e+02
-4.198355352595860950e+02
-5.232892070919845082e+02
-4.630125071021811323e+02
-3.415034632488899433e+02
-1.643149065668860374e+02
-5.051730471640207298e+01
6.732993065152719225e+01
1.405328273701489934e+02
-5.078555770387647783e+01
-8.962979692450059588e+01
-1.860082277644336557e+02
-2.151521835650391949e+02
-1.633872828753632689e+02
-2.718217298998894762e+02
-1.872114453845496485e+02
-2.033384420955248686e+02
-2.958404750084690136e+02
-2.080569407708753431e+02
-4.659972590213764647e+02
-6.317194252931171832e+02
4.767171392669392844e+02
2.825542053544059854e+03
4.314569851341027970e+03
5.210982069654851330e+03
3.695130445388969292e+03
1.157595309030272347e+03
-2.789023820129617093e+01
-2.289597595358315516e+02
-3.486422421448893942e+02
-4.055720638146128749e+02
-3.942524384506573938e+02
-4.748045291475532395e+02
-4.077153079945113063e+02
-4.287146333117084964e+02
-4.331654189127024779e+02
-3.316923799815045868e+02
-4.162468358344977446e+02
-3.396458487533973880e+02
-2.728828167780364993e+02
-3.476233665457676238e+02
-3.095608936161627867e+02
-2.987600021914248600e+02
-2.005785255927540902e+02
-1.917276096721891463e+02
-2.680988849988725065e+02
-2.258145107051871321e+02
-2.446409017630568883e+02
-2.900646070857640666e+02
-3.243674832705410154e+02
-3.593552052501526077e+02
-3.959846080454807975e+02
-4.160717657227118593e+02
-3.602896268063377079e+02
-2.767722118699991256e+02
-2.176036078542103951e+02
-1.648972893445770467e+02
-7.039418931937618140e+01
-3.782489091140889315e+01
-6.400218465961981451e+01
-7.956373255151368085e+01
-7.910591688456251802e+01
-7.019702803272951996e+01
-1.065745717279352647e+02
-1.017746204835031705e+02
-6.037131687613909037e+01
-7.304221795488589919e+01
-9.823613163184923280e+01
-1.033531897082885251e+02
-6.260901615824444377e+01
-6.955473390044933524e+01
-1.196735702386117879e+02
-1.327528715751012953e+02
-9.084639619888358197e+01
-6.822162537691627904e+01
-9.930361955472477575e+01
-1.410107046573625098e+02
-1.484021780556025760e+02
-1.632627064808709179e+02
-1.609039198035828804e+02
-1.686519584185233214e+02
-1.862440704037160515e+02
-1.994872099454544809e+02
-1.778973189328625892e+02
-1.923036023411400492e+02
-2.277627750269658407e+02
-2.128230735388362120e+02
-2.243207432246286430e+02
-1.941092444466081588e+02
-3.025382302100100560e+02
-4.959283342417688232e+02
-4.386533677302523415e+02
-3.093824992026194991e+02
-1.765377284339179482e+02
-1.012379889443214864e+02
-1.896252851843271969e-01
1.855916373953992888e+02
1.071083966182720673e+02
-1.881896876015182585e+01
4.628753512087527611e+00
-1.051165701466567270e+02
-1.159851033172092372e+02
-1.185112571884530865e+02
-1.163634598552721968e+02
-8.893133769621866236e+01
-1.558751365993742297e+02
-1.225032833229349052e+02
-1.434511866899083543e+02
-5.582734362763740137e+02
-2.701181475670213672e+02
1.633631998331451086e+03
3.780431552807345724e+03
4.959601164085284836e+03
4.810682275634426333e+03
2.335052339362917337e+03
4.507594178254740314e+02
-9.921191045495490357e+01
-1.616565198312564462e+02
-3.528718628437723055e+02
-3.525599739681997562e+02
-4.058099221450471532e+02
-4.456014291071295474e+02
-3.537467211591915088e+02
-4.167212317744394454e+02
-3.813971033191838842e+02
-3.640564675211602435e+02
-3.989800417717719370e+02
-3.306014648382823680e+02
-3.490431646099826821e+02
-2.928671527856225794e+02
-2.930931615527763370e+02
-3.366176403693502834e+02
-2.978324372050955731e+02
-3.044197919221836628e+02
-2.812095674548349962e+02
-2.590586430426666880e+02
-3.105786757846182127e+02
-3.011298741250824378e+02
-3.250246745421587775e+02
-3.321176877083893828e+02
-3.638509642866605418e+02
-4.041541447253918591e+02
-3.862463723386771903e+02
-3.028847916529509234e+02
-2.305334694413057264e+02
-1.527452592614328353e+02
-1.234781077191542806e+02
-1.141990587729547570e+02
-1.252418884199793325e+02
-1.043515172899493280e+02
-9.435384063631704521e+01
-9.883057853533640014e+01
-1.164429391776878049e+02
-1.404905844828259376e+02
-1.404563448280691773e+02
-1.363636046421242440e+02
-1.140890501455589288e+02
-9.727036794433060152e+01
-1.224263372882339809e+02
-1.236576493116802595e+02
-1.463554249155743889e+02
-1.483494382244424514e+02
-1.424348092895256741e+02
-1.931985504602749586e+02
-2.314266116888947522e+02
-2.113024507454012735e+02
-2.158866431891368336e+02
-2.086123777836089346e+02
-2.158123435593749377e+02
-2.170640666052911740e+02
-2.504055895060202772e+02
-2.508668114715954971e+02
-2.529328941033499518e+02
-2.633565534329381421e+02
-2.759070229077995009e+02
-2.806620969924300653e+02
-2.635540220482797622e+02
-3.767265061722724795e+02
-5.209618605409007159e+02
-4.673805758263020493e+02
-3.636341224717326668e+02
-2.114628130117130524e+02
-1.028164468095874611e+02
1.428572712464594829e+01
1.868224684205550261e+02
7.272460942908350034e+01
-6.902093263228792352e+01
-8.909446651934025851e+01
-1.504325523662942032e+02
-9.154104870784526327e+01
-1.193853934868474909e+02
-1.360686514071384181e+02
-7.630369261854357887e+01
-1.725541746510992596e+02
-1.250027025815833213e+02
-1.912645941564065026e+02
-6.314813096655852860e+02
-2.495107663795125745e+02
1.810145218016810986e+03
3.957906853593779033e+03
5.054166451188711108e+03
4.599181864392923671e+03
1.991667076843213863e+03
1.909169334693706332e+02
-2.535238791653141561e+02
-2.254749678931741528e+02
-3.420130844159020285e+02
-3.358718601061497111e+02
-3.761032510979745211e+02
-4.015637021057636389e+02
-3.755790177160296821e+02
-4.618940961406727297e+02
-3.897321840878453258e+02
-3.635676343835331750e+02
-3.721704283941609219e+02
-2.937846619661788736e+02
-3.428592281872954572e+02
-3.171021082076080688e+02
-2.979834985806837722e+02
-2.909095416798860469e+02
-2.209637253061545152e+02
-2.244472519059403055e+02
-2.194001694899478423e+02
-2.204706539344300609e+02
-2.549876131905805892e+02
-2.265033103063740896e+02
-2.426018827300910630e+02
-2.468023689630016122e+02
-2.325417386751226729e+02
-2.320781568154317256e+02
-2.128824516356629886e+02
-1.811861364272651258e+02
-1.185049072483811443e+02
-7.028111780538812070e+01
-5.937882143347285080e+01
-8.792223641834340242e+01
-1.003160653455773712e+02
-5.780249995324533785e+01
-7.778126362396730542e+01
-9.347273339139950110e+01
-8.790672011895121329e+01
-8.172085893352131336e+01
-5.283111655674603213e+01
-6.639183613783634996e+01
-7.882192437151145725e+01
-9.911576929528456503e+01
-1.345825127513915618e+02
-1.361574429373328030e+02
-1.599282265298225809e+02
-1.465757011066075961e+02
-1.519363898072703591e+02
-1.778569267335134896e+02
-1.851057804361747401e+02
-1.968508355596870842e+02
-2.167716979342371246e+02
-2.344709299661570583e+02
-2.430287822088281189e+02
-2.459798478833824902e+02
-2.602714427292723371e+02
-2.849578124994062591e+02
-2.867484571814910055e+02
-2.721642841093657808e+02
-3.622963988063122542e+02
-4.717528418972675013e+02
-3.752275818196181376e+02
-2.516370986756635943e+02
-1.331249838518360775e+02
-2.220288970807310847e+01
5.214706081280187533e+01
1.764475542810020556e+02
1.822677094146558119e+01
-1.566593435447975367e+02
-2.071336287241778962e+02
-2.617738361695430740e+02
-2.038523542036558069e+02
-2.398946333188492588e+02
-2.605758641563267020e+02
-2.069553233478185064e+02
-3.059324090082191674e+02
-2.575349932040524550e+02
-3.039761361672307203e+02
-7.520972832393013050e+02
-4.536203353874620916e+02
1.643440161722002131e+03
4.019642288292196554e+03
5.177334659130226100e+03
4.502339132935130692e+03
1.719907700334661286e+03
-7.014589454558786485e+01
-3.628740241964915754e+02
-3.059030302176015539e+02
-4.675944690850519123e+02
-4.667599449500308992e+02
-4.925661516596427418e+02
-5.055999672366612003e+02
-4.572657174971440668e+02
-4.963465582216451253e+02
-4.272861303690869477e+02
-4.105160339112438805e+02
-4.362044608313120193e+02
-3.567176902367061189e+02
-3.771546864153551724e+02
-3.275803225290521823e+02
-2.798904503047488106e+02
-2.712962434653718446e+02
-1.984211296442883565e+02
-2.108358627723195582e+02
-2.018780119858845694e+02
-1.678233072798267642e+02
-1.384061022035478459e+02
-9.437707708614922808e+01
-9.090087264815970514e+01
-8.580085325753424286e+01
-4.050856812594543044e+01
-4.557226200359069423e+01
-1.641449558736362846e+01
1.396886533317428203e+01
2.051162244376597954e+01
1.072265032187133471e+01
-3.253953392054349081e+01
-1.044300067641534469e+02
-1.290788039437677526e+02
-1.519048338832449190e+02
-1.641155441453705635e+02
-1.465890787445846399e+02
-1.185170119508532025e+02
-1.126010657565808515e+02
-1.070023908224038109e+02
-1.115748101782186836e+02
-1.172921587803657957e+02
-1.419643514753208251e+02
-1.432468706116076760e+02
-1.506194369439567708e+02
-1.609242134797861183e+02
-1.641558148004187387e+02
-1.616629697066195774e+02
-1.803163356623832669e+02
-1.821991589023080849e+02
-2.074837856317711271e+02
-2.277964643308522170e+02
-2.205885766966119093e+02
-2.472971067486571144e+02
-2.715389579175648578e+02
-3.795553409092310062e+02
-4.327887804552337911e+02
-3.707360270565811220e+02
-2.532162641802007101e+02
-1.219426216439557891e+02
3.297416884141300386e+01
1.202093220627504735e+02
2.194621275183270654e+02
7.360189675365340634e+00
-1.796014492327101379e+02
-2.060695445371040080e+02
-2.570133581152134639e+02
-2.178274971992039468e+02
-2.366521876456882580e+02
-2.527321932053690148e+02
-2.058387509383888698e+02
-3.011738572923347874e+02
-2.728092491179510830e+02
-3.003621493544316081e+02
-7.897203634546365265e+02
-5.806533578975028149e+02
1.510308361607865208e+03
4.071488150770772336e+03
5.342754433846498614e+03
4.620803456991945495e+03
1.705245431657763220e+03
-1.922650853985582557e+02
-4.381743671918792984e+02
-3.247507422583166772e+02
-5.079043239557864808e+02
-5.176008762658348132e+02
-5.427799725707197922e+02
-5.556538753839570290e+02
-4.866091804995373309e+02
-5.454435961552702565e+02
-5.159773046831770671e+02
-4.697476678730421895e+02
-4.661906840910925212e+02
-3.817208915218881202e+02
-3.749564271794598085e+02
-3.398485481871990146e+02
-3.126615512543494901e+02
-3.182701304411756382e+02
-2.599465945511857399e+02
-2.440441870867409477e+02
-1.994449351695469659e+02
-1.357781808359938509e+02
-1.212640692203652577e+02
-8.131494751344813210e+01
-8.753149286663841622e+01
-1.013561425580854234e+02
-8.187602678428241632e+01
-6.223920734356346429e+01
-1.253536697655560772e+01
1.421485231434547813e+01
-9.802799644759101483e+00
-3.351466550527713650e+01
-1.099656710377913669e+02
-1.705581585064489047e+02
-1.968825256954877432e+02
-2.242483697727378171e+02
-2.106944809342940630e+02
-1.764796549001019628e+02
-1.736147809445840551e+02
-1.726052726718499173e+02
-1.482837438948517388e+02
-1.384910518765385063e+02
-1.318636154221721313e+02
-1.165473965350846441e+02
-1.464096586161447817e+02
-1.451662009579918049e+02
-1.639527780006796434e+02
-1.644855153674487553e+02
-1.581867569492866608e+02
-1.951580430547660683e+02
-2.415878851524363427e+02
-3.600535292041130333e+02
-4.111725124533384133e+02
-3.436883887306659631e+02
-2.572520968955591343e+02
-1.340016090995657123e+02
-2.191300588398106441e+01
9.530450106952946498e+01
1.438465887687864040e+02
-8.667215227899011154e+01
-1.964751797545165459e+02
-2.158539230246701379e+02
-2.802168832558425038e+02
-2.130376393895602973e+02
-2.640319029704494369e+02
-2.854753375530759740e+02
-2.715884801914351669e+02
-3.574098785661780084e+02
-2.650214155569475452e+02
-3.633682764125310314e+02
-8.864156052385619660e+02
-4.444054640822364490e+02
1.898945434579253970e+03
4.170605910691974714e+03
5.191572979655827112e+03
3.987077892508712466e+03
1.136187211983926545e+03
-3.800181482011448111e+02
-4.021844851446749658e+02
-3.411300851188494789e+02
-4.700382859604847567e+02
-4.435952482000910777e+02
-4.942593411599305000e+02
-4.809079679631614113e+02
-4.564708458435029570e+02
-5.103414118293168826e+02
-4.280161535849147185e+02
-4.300140393109346633e+02
-4.376725974756822666e+02
-3.720149149634061700e+02
-3.760928026649083904e+02
-2.875039736769647334e+02
-2.464073059198433100e+02
-2.164603403501129435e+02
-1.666836061862210840e+02
-1.695719240808381016e+02
-1.257826092090904240e+02
-8.331922531067746718e+01
-7.108406594569373738e+01
-5.582024203887044678e+01
-4.624560242426656487e+01
-3.774247653598381191e+01
-3.283004901758643257e+01
-1.379379829948408798e+00
7.252477290845595448e+00
-1.003356019967374557e+01
-5.910116714556475159e+01
-7.153710265950473968e+01
-5.794797183708951138e+01
-1.454392759504036690e+02
-1.828705615625648591e+02
-1.671897468428367404e+02
-1.795400133750709983e+02
-2.057690805017873572e+02
-1.938762604423686469e+02
-1.824140215740165445e+02
-1.868535664756333290e+02
-1.917152524848794712e+02
-1.932504404720970967e+02
-1.949903356049589718e+02
-1.990332375914615568e+02
-2.258128566613877695e+02
-2.215796946382006638e+02
-1.990921809688991857e+02
-2.337647188997983676e+02
-3.248572688337019940e+02
-4.514912434520834381e+02
-4.388648606821616909e+02
-3.857823156304444865e+02
-2.658927068497609980e+02
-9.835924708540507311e+01
1.630860667913769291e+01
8.904299895395607223e+01
6.297665835075281393e+01
-1.748936729763095741e+02
-2.189546597338411686e+02
-2.729710504374718312e+02
-2.629666628724265820e+02
-1.991485893472680289e+02
-2.593976257131132002e+02
-2.154880672897346585e+02
-2.602019182233726724e+02
-3.304661020479238118e+02
-2.343734676133931600e+02
-5.282636596657748669e+02
-8.629003262340103220e+02
2.760727024779263274e+02
2.965306827397203506e+03
4.742355085402066834e+03
5.140760609875737828e+03
2.904037768141706692e+03
3.840785958497327783e+02
-4.470045690881427163e+02
-3.005120325372184880e+02
-4.402973713265628817e+02
-5.109803080527091765e+02
-4.756159225429253183e+02
-5.569340274414821579e+02
-4.890531268968413201e+02
-4.872046513653818920e+02
-4.972228305344721093e+02
-4.380305869821857527e+02
-5.042440195094213777e+02
-4.113746700554215749e+02
-3.504444434825990129e+02
-3.401036918302436902e+02
-2.550314096046505483e+02
-2.331325092501369909e+02
-1.931005619381630254e+02
-1.853392213796108194e+02
-1.762188563553423251e+02
-1.097628981644095632e+02
-9.869259907472275017e+01
-7.030486850660415143e+01
-2.592047472600219038e+01
-2.922533207091972685e+01
-3.216984390299690233e+01
-2.136914495064289099e+01
1.961592753847052251e+01
2.284190300684079489e+01
-3.038921509803646615e+01
-4.407121339896239931e+01
-8.051322720213892126e+01
-1.224577846669972132e+02
-1.730233088706946489e+02
-1.954001055041991606e+02
-2.022234873244171638e+02
-1.947478232746423430e+02
-1.666123121983042097e+02
-1.486318907972903389e+02
-1.212041834659464712e+02
-1.443413399299914772e+02
-1.869453052920079870e+02
-1.817567143067675204e+02
-2.144429043859160515e+02
-2.021390182650234522e+02
-2.161718807021315172e+02
-2.599230501304193695e+02
-3.513288740512184063e+02
-4.741299902443350334e+02
-4.102926232434390954e+02
-3.535857110190480057e+02
-2.826241849587315187e+02
-1.672947240066923769e+02
-4.114194984750668027e+01
7.574272499570780326e+01
8.087961995420362982e+00
-1.742437234806656932e+02
-2.236341482245728685e+02
-2.866978329074959220e+02
-2.589964336345827860e+02
-2.452580124985173313e+02
-3.070310436209965133e+02
-2.255350951911148059e+02
-2.786462751167964598e+02
-2.870731138386114480e+02
-2.229986936955342856e+02
-6.176742151876505886e+02
-7.018318010903138884e+02
8.121507698214476250e+02
3.390823523290227968e+03
4.924658799147622631e+03
5.001160865197833118e+03
2.525959355499583580e+03
2.632236934127690233e+02
-3.806487801793355175e+02
-2.899916659860896289e+02
-4.510504973835697911e+02
-4.876498817312547658e+02
-4.602919750600884186e+02
-5.186446304295038772e+02
-4.347642387290065358e+02
-4.786291439762952677e+02
-4.845829168589426672e+02
-4.284537362479624676e+02
-4.292394943070946169e+02
-3.355606402412313400e+02
-3.246220852512154238e+02
-3.295482234489608686e+02
-2.675267349276856521e+02
-2.864381610540098109e+02
-2.155065730692720649e+02
-1.969705585080310186e+02
-2.067535510867818687e+02
-1.987405737515736064e+02
-1.853541523527230197e+02
-1.483973404196885895e+02
-1.626747992975998045e+02
-1.713295284132040308e+02
-1.629542870726642434e+02
-1.823061064717416002e+02
-1.544208550430920184e+02
-1.577781918481110210e+02
-1.549578252080097229e+02
-1.641256434533162576e+02
-1.890135098372845448e+02
-1.977509087010905091e+02
-2.171781323326052302e+02
-2.024318051469756767e+02
-2.003567254670109037e+02
-1.845843787271342933e+02
-1.605287817671572270e+02
-1.847403277066225087e+02
-1.994485552015602536e+02
-1.655088189826618930e+02
-1.289681711075221813e+02
-1.257355564175015132e+02
-1.523023713632361478e+02
-1.246905777414330174e+02
-1.397316537137671162e+02
-1.993561706654083139e+02
-3.793134483702475563e+02
-4.855860677008368498e+02
-3.698604447576940402e+02
-3.953396949227567347e+02
-2.972362885133371151e+02
-1.985737886148386337e+02
-2.223747094168670202e+01
8.274640358233561699e+01
-4.449339120884496168e+01
-1.628237046362166041e+02
-1.587447238913255489e+02
-1.966431407057309855e+02
-1.110032347858841320e+02
-1.442459985252449428e+02
-1.981640257110036316e+02
-1.935338573378623721e+02
-2.779081502633665650e+02
-2.033438981389378739e+02
-2.703176937981204446e+02
-6.966027880512438060e+02
-2.449460609763347634e+02
1.910353549107192975e+03
3.975181267242493504e+03
5.034563005307923959e+03
4.316217919255543165e+03
1.674574246129142466e+03
-2.147434570158626244e+01
-2.992737942528545432e+02
-3.010724337203528194e+02
-4.405673536785050715e+02
-4.251686756709139559e+02
-4.724303033316890037e+02
-4.661559960691574247e+02
-4.156912717245896829e+02
-5.040101488779050669e+02
-4.575526650346874362e+02
-4.231013781886109086e+02
-4.177982486130824213e+02
-3.573810952505365890e+02
-3.857379571700664087e+02
-3.400360969386542820e+02
-3.175238643713724400e+02
-3.055405210632102353e+02
-2.757212280051373341e+02
-3.257000796372420837e+02
-3.114209835996680908e+02
-2.931181745589859133e+02
-3.198326274730654859e+02
-2.548032420701588876e+02
-3.135315965279337433e+02
-3.442928945579504330e+02
-3.408376326684441437e+02
-3.416297921765597039e+02
-3.110211765369799650e+02
-2.456233809050176262e+02
-1.965513401353937581e+02
-1.491332753538961811e+02
-1.632833351723255930e+02
-1.761335247194427893e+02
-1.613473533341599477e+02
-1.843833688288445387e+02
-2.132637908976864765e+02
-1.715831924508871964e+02
-1.342338870018554644e+02
-1.178084854293193331e+02
-1.432723704183057976e+02
-1.544262895554228976e+02
-1.060350367104017693e+02
-6.937543781040636759e+01
-1.106314305704665202e+02
-1.203253202690175669e+02
-1.367228003882704854e+02
-1.836639893011460742e+02
-3.311528225092392290e+02
-4.635940215784997349e+02
-4.068716334225775881e+02
-4.365295581121494592e+02
-3.271707123023773534e+02
-1.523240388758871404e+02
-3.306330193033849696e+01
1.080640660102295669e+02
6.271954786118986647e+01
-7.130566687019936012e+01
-1.972336171918157532e+01
-9.544934692376904195e+01
-9.252194307173348875e+01
-9.407219496278116821e+01
-1.320469334454817840e+02
-4.812499356453486143e+01
-1.421444449589648684e+02
-1.711252186259903567e+02
-1.232526501500467191e+02
-4.465039655785213881e+02
-2.982629119122053112e+02
1.425753529850701625e+03
3.606014504083135307e+03
4.689523891848297353e+03
4.750695018745730522e+03
2.417804673236700182e+03
3.972248535777503662e+02
-2.201453006054900925e+02
-2.103004737411223175e+02
-3.736041517461406443e+02
-3.766638585532135721e+02
-3.868736634549398445e+02
-5.050542056350674898e+02
-4.382428135947171199e+02
-5.149235652593965824e+02
-4.584332333799981143e+02
-3.937354601026594878e+02
-4.271218451450579323e+02
-3.921376734906680213e+02
-4.547609484624075549e+02
-3.993557849883408721e+02
-3.204774077637586629e+02
-3.308033323799928667e+02
-2.545378172062822841e+02
-2.502690493070231526e+02
-2.855853876886959597e+02
-2.879902500573360271e+02
-3.134657367193432265e+02
-3.301035277431325881e+02
-4.102466684404214448e+02
-4.184980736613640602e+02
-4.277182997229870125e+02
-4.777443742229898476e+02
-4.609294610219910169e+02
-3.387875142039378602e+02
-2.780804079080451174e+02
-2.064739014892542741e+02
-1.583911834290453839e+02
-1.430991344818461073e+02
-1.462801186643203266e+02
-1.752165382204295554e+02
-1.784755670335025286e+02
-1.494995267046313359e+02
-1.203061192360865022e+02
-1.516681031849653323e+02
-1.237206354329225348e+02
-8.146691099663937052e+01
-1.064217192909260206e+02
-1.027063372004163568e+02
-9.305622678877655574e+01
-8.009444364755847801e+01
-1.048241156129798668e+02
-1.071798598357186307e+02
-9.054201676328527526e+01
-1.070371150428763229e+02
-1.219884549068481903e+02
-1.554656375806682718e+02
-2.122101945106532526e+02
-3.250023440886147910e+02
-4.444444926188860450e+02
-4.058945953579532784e+02
-4.176051168780739431e+02
-2.726755458254707492e+02
-8.794572981600553874e+01
-3.928408902109904233e+00
1.022757316461045320e+02
3.352461304980010226e+01
-1.095894395101435066e+02
-1.109006067306260377e+02
-1.770555837601123415e+02
-1.208612148239390223e+02
-1.289025671051571180e+02
-1.825471827529819393e+02
-1.002222152654774732e+02
-2.218618859458514123e+02
-2.007014888196509617e+02
-1.655399703951901813e+02
-5.239367327280486961e+02
-2.679850104147845400e+02
1.528298487251588995e+03
3.595507265307600846e+03
4.646802599187470150e+03
4.698692498371941838e+03
2.384118733367590721e+03
4.929343215130338649e+02
-1.587280396601890686e+02
-2.258758243814972673e+02
-4.126427677683205957e+02
-3.775511173148423723e+02
-3.572245062116462577e+02
-4.072267142951296250e+02
-3.761581363389766466e+02
-4.827698554243586386e+02
-4.038828375051652984e+02
-3.202153838046618830e+02
-3.815220189525576870e+02
-3.395956790736933613e+02
-3.545102296031516289e+02
-3.161612852281285768e+02
-3.359903061759898151e+02
-3.366373547694432773e+02
-2.639781436417890745e+02
-2.896266618053448383e+02
-2.781604558363798105e+02
-3.030806997647022172e+02
-3.492453004190424508e+02
-3.268900461972585845e+02
-3.790900106989596452e+02
-4.711272032614302248e+02
-4.563035772544449173e+02
-4.275152381724345219e+02
-3.686138279559467037e+02
-2.913173842436884797e+02
-1.997949294446369208e+02
-1.491250917310735247e+02
-1.197484368387618758e+02
-6.901549485143175389e+01
-1.007010124649881675e+02
-1.269236735290131435e+02
-9.816727427954494090e+01
-3.535393989386366798e+01
-6.427844425568093811e+01
-1.176795423959478200e+02
-8.585687311671694033e+01
-8.059149422857518630e+01
-5.114367370101201971e+01
-6.400501538089704923e+01
-1.162420337920907230e+02
-1.152263439652425063e+02
-1.020147565720671849e+02
-1.208274518607489938e+02
-1.526486767008611025e+02
-1.943687999420309893e+02
-1.684538910129567171e+02
-1.699446257162286997e+02
-2.235414766849909824e+02
-2.468492995325638901e+02
-2.157249319092772453e+02
-2.120786986456763827e+02
-2.646739177806422276e+02
-2.770110799985108088e+02
-4.104575552416016535e+02
-5.051521271801905186e+02
-4.463812211710782094e+02
-3.460027070277727148e+02
-1.921958497034666209e+02
-1.412395177357775538e+02
4.812304720919480694e+00
1.641148467880032058e+02
-2.239486063410630834e+01
-1.199057148816176976e+02
-1.853803496004646263e+02
-1.712209311090641677e+02
-5.361103801737894514e+01
-1.476597470818184945e+02
-1.521542225428069059e+02
-1.419143620761193176e+02
-1.988964688364331721e+02
-1.086718540980956504e+02
-2.665141714889686000e+02
-5.072272507327757580e+02
3.358855450584313189e+02
2.557373002489796818e+03
4.081505383986299876e+03
4.968162470879154171e+03
3.802947549696075839e+03
1.344805178606488653e+03
9.587101139283947759e+01
-1.104097563653576515e+02
-2.338020077623658608e+02
-3.234923324711572832e+02
-2.695466007144846117e+02
-3.794117425231791003e+02
-3.324889935917818207e+02
-3.295585570466155332e+02
-3.867588685577057390e+02
-3.002969584946509940e+02
-3.336731824143095082e+02
-3.116404128807363350e+02
-2.696578717975452264e+02
-2.968089010583838672e+02
-2.112146346327218964e+02
-2.114500970110615299e+02
-2.353382071402831457e+02
-2.173570841664412683e+02
-2.373370749627862608e+02
-2.396056970041262559e+02
-2.764813610395514161e+02
-2.788005757788560572e+02
-2.676580646622127233e+02
-3.132878497748502582e+02
-3.403610309562643579e+02
-3.791492080970098186e+02
-3.670253269686416502e+02
-2.653068147494814184e+02
-1.935482867428823681e+02
-1.591893620590886087e+02
-1.370999036683426198e+02
-1.114875488999229134e+02
-1.324535311781742166e+02
-1.580902658405563557e+02
-1.407343481285197981e+02
-1.228112885782693411e+02
-1.127033598446205502e+02
-9.833197978083428836e+01
-9.235794390666667653e+01
-1.325693294836181053e+02
-1.218424020074358083e+02
-9.949000187131441919e+01
-1.030202570544707470e+02
-1.030043998709442121e+02
-1.081790018648003837e+02
-1.300159030047850877e+02
-1.589326390236346924e+02
-1.918312076610833685e+02
-1.711251928969316509e+02
-1.596477230431133023e+02
-1.421989151851731776e+02
-1.667704874459192297e+02
-1.971144727122100164e+02
-1.990960243272646721e+02
-1.924881745175976562e+02
-2.139793535960452857e+02
-2.403728564639981471e+02
-2.302722329699117836e+02
-2.287277658205890418e+02
-2.362896565994988123e+02
-2.609023545313718841e+02
-2.647207650408274731e+02
-3.332239403690736594e+02
-5.169537133340722903e+02
-5.056823920626255813e+02
-4.078137367080051376e+02
-2.391365679773610680e+02
-1.341541212839697153e+02
-6.158201281645407477e+01
9.993965971433568996e+01
1.054154059564824024e+02
-8.898154434575138794e+01
-1.179674158873602039e+02
-1.817785104180406961e+02
-1.177471678499063188e+02
-1.019813350996030863e+02
-1.621122808046814612e+02
-1.075691941350357297e+02
-1.657266245942793148e+02
-1.539934136128882187e+02
-1.475677156472619913e+02
-5.393133942590552579e+02
-4.363600610052166644e+02
1.217121894882286142e+03
3.603664889234472867e+03
4.875131640826180956e+03
4.882505970479556709e+03
2.453255990611948619e+03
4.144442287647111129e+02
-2.367731348773797890e+02
-2.146466627745254527e+02
-3.633510822087276892e+02
-3.671023613454142378e+02
-3.970900131901211125e+02
-4.699120404755109917e+02
-4.011687534546701386e+02
-4.604186132850302329e+02
-4.245134811896326710e+02
-3.501501614493371903e+02
-3.833931204085102991e+02
-3.213039953668842372e+02
-3.244563153575809338e+02
-2.960558891570456126e+02
-2.651379910997210345e+02
-2.716344739477273151e+02
-2.160273540061480162e+02
-2.300862274125126419e+02
-2.390195106468794677e+02
-1.907864835150874683e+02
-2.252552172564889759e+02
-2.352576727377169163e+02
-2.323078058891289288e+02
-2.615977382118268224e+02
-2.874332964885037427e+02
-2.750579603773485360e+02
-2.306941597811217832e+02
-1.850420007212937321e+02
-1.393596395681041713e+02
-1.038572581492003337e+02
-9.696488745757740446e+01
-9.507034625026666674e+01
-1.456524893648726220e+02
-1.555130926271419867e+02
-1.653119670841736877e+02
-1.603588744528298093e+02
-1.328547385238254321e+02
-1.286541909344261398e+02
-1.029810827570905190e+02
-1.113991905222889045e+02
-1.130429431950556705e+02
-9.378277178349304677e+01
-9.874240630371974703e+01
-9.782454142112464979e+01
-1.202032037309867718e+02
-1.185983219562547504e+02
-1.121704269961135054e+02
-1.093253472143222211e+02
-1.147623737249917610e+02
-1.238865390616554834e+02
-1.380226007538160502e+02
-1.319923249168246571e+02
-1.456947681320895924e+02
-1.555705167601623771e+02
-1.639527841928326097e+02
-1.905253684315632086e+02
-1.856952291406242068e+02
-1.660045764201394149e+02
-1.660948673606132786e+02
-1.774196744488081379e+02
-1.823780246136390701e+02
-3.276371425174543219e+02
-4.113482933993918209e+02
-3.265556681026981778e+02
-2.031001838270577480e+02
-5.284751342537478536e+01
6.104673766195052309e+01
1.417866368392045615e+02
2.451052137806748874e+02
2.878869430775890237e+01
-9.710001406493826437e+01
-1.527523950083090085e+02
-1.857931727127209456e+02
-1.314245814508868477e+02
-1.839194892486378023e+02
-1.721704966372975036e+02
-1.916801427956377211e+02
-2.795396389015867271e+02
-2.028503236198900197e+02
-3.945451137461931808e+02
-8.394290000750945637e+02
-1.879544248339095702e+02
2.263908862562793729e+03
4.423999510381387154e+03
5.322426078157201118e+03
3.841090026319905064e+03
1.044668097959378201e+03
-2.692491491745929579e+02
-3.566019004827822414e+02
-3.912291196603399612e+02
-4.917907520296951134e+02
-4.335093537116348443e+02
-5.072161801860539754e+02
-4.909522301703104290e+02
-4.639201731236046271e+02
-5.063144226063952829e+02
-4.361480964285109962e+02
-4.602480341859516670e+02
-4.081676271799373126e+02
-3.305088622782148491e+02
-3.526371334362094672e+02
-2.959789197175934987e+02
-2.702066173605329595e+02
-2.537677279001497368e+02
-1.908702549076069772e+02
-1.898457536861317294e+02
-1.564681448724231245e+02
-1.549534174084028280e+02
-1.484715040673414990e+02
-1.256406078822730308e+02
-1.271126497352512672e+02
-1.073065025025092325e+02
-8.784071868762195834e+01
-6.247013794857406310e+01
-5.004025997953661431e+00
2.309895098353028686e+01
2.976670041819088652e+01
-3.786105126950982225e+00
-3.867074967627473825e+01
-8.774102128091188035e+01
-1.128812494983914263e+02
-1.192378275066939040e+02
-1.257152375485951694e+02
-1.206020668114970533e+02
-9.757465759905221603e+01
-1.027920465054580887e+02
-9.615102646108987017e+01
-9.356217453826056385e+01
-1.001117135444514474e+02
-1.093590992764814018e+02
-1.042916693778291517e+02
-9.141911997529713574e+01
-1.205734537392224155e+02
-1.454741910799622815e+02
-1.588614152774085824e+02
-1.650787847099720977e+02
-1.794549478351685536e+02
-1.820024771118956153e+02
-1.774218307677851953e+02
-1.998628442214889276e+02
-2.076556495667141178e+02
-2.167955084187587715e+02
-2.325495079501429814e+02
-2.403146799632752391e+02
-2.523910265076418398e+02
-2.603521391590643361e+02
-3.078245638459802649e+02
-4.392874535427595220e+02
-4.176123489348378257e+02
-2.656336476660429184e+02
-1.136428963377681072e+02
6.530732542005960539e+00
1.029999982271501437e+02
2.251171608296098725e+02
9.125748744599074769e+01
-1.693159353644230123e+02
-2.058419456927557007e+02
-2.659094762169817727e+02
-2.390469974181549446e+02
-2.479822030662825227e+02
-3.156203723879950758e+02
-2.398042928937618399e+02
-3.101413522748130163e+02
-3.213379451125407513e+02
-3.031801324009914538e+02
-7.984195707852851456e+02
-8.908410068671648787e+02
8.752931075222975323e+02
3.789031222644056015e+03
5.422005072565937553e+03
5.192535434938804428e+03
2.359669535960773374e+03
6.856209680095025760e+01
-4.738839655343024901e+02
-3.604410634761540564e+02
-5.191458374799080957e+02
-5.642426851500679277e+02
-5.632230992752101884e+02
-5.857929330539334387e+02
-5.063268913836972160e+02
-5.541271326670000690e+02
-5.458355861268461240e+02
-4.857080987639671434e+02
-5.079903521920323328e+02
-4.324702537031520251e+02
-4.269641250322516157e+02
-4.076592773957954705e+02
-3.338110010816852196e+02
-3.161463509032980141e+02
-2.532567965127459502e+02
-2.308920119866167511e+02
-1.997247589071017444e+02
-1.373470094616940287e+02
-1.311480146833268350e+02
-8.623814005978054809e+01
-7.320505616026576945e+01
-9.888431749484551858e+01
-7.770337239093468895e+01
-6.322927847707475024e+01
-3.134753759866223533e+01
1.686277769103752178e+01
1.888640861107852587e+01
-5.081121595419887171e+00
-5.195127185992186014e+01
-1.301206592042596242e+02
-1.930644724808445858e+02
-2.259223853095796812e+02
-2.305252363835827794e+02
-2.398512610310839364e+02
-2.268227364986514374e+02
-2.138376752756907706e+02
-1.885676412243708739e+02
-1.948794172202244113e+02
-1.798898299645271095e+02
-1.594159217978140930e+02
-1.537973211528208424e+02
-1.737936155576908277e+02
-1.763621792680991689e+02
-1.720961763304826206e+02
-1.905402104174185922e+02
-2.157768785804501874e+02
-2.016481210346556736e+02
-2.191155990236857178e+02
-2.234029879713853290e+02
-2.012817869210078072e+02
-2.144379068223196612e+02
-2.301635232429311202e+02
-2.727203646862847677e+02
-3.678886187037344939e+02
-3.224344895440265759e+02
-1.901540467324092560e+02
-5.585658645860979021e+01
7.749406786685418069e+01
1.732140342834769058e+02
2.761641766431637279e+02
1.003198127681994123e+02
-1.462616947344376399e+02
-1.859862571859972320e+02
-2.620471963523052636e+02
-2.174600683445594598e+02
-2.241305664036533756e+02
-2.725620614565762025e+02
-2.324497138686794813e+02
-2.956870581391374344e+02
-3.029068970744470448e+02
-2.940977580240410703e+02
-7.963256084140019766e+02
-8.212508459018054054e+02
1.029538836406839664e+03
3.903538642668904686e+03
5.478636439251925367e+03
5.148582055647519155e+03
2.264964252697897791e+03
3.988735281440912672e+01
-4.133366289979888393e+02
-2.714597119089312400e+02
-4.424829988015198410e+02
-4.891370980557223902e+02
-4.801071364143493838e+02
-5.327876138465951499e+02
-4.534699348571142536e+02
-4.751666359329578881e+02
-4.404159752789827280e+02
-3.902055057317318756e+02
-4.199549901884049063e+02
-3.343360125779577743e+02
-3.322664147877455889e+02
-3.056906105600230035e+02
-2.490037960971184532e+02
-2.601796765243209393e+02
-2.039858521700266181e+02
-1.823630342183968196e+02
-1.668393646313784302e+02
-1.219061061576010445e+02
-1.193990357004865501e+02
-6.551179486962669785e+01
-4.971729351126409568e+00
5.317710679009536534e+00
1.328032456175618492e+01
1.455874658880820149e+01
2.862386753684549490e+01
4.813712776065369781e+01
1.661718470441958573e+01
-2.159517992759236193e+01
-7.934022330729251848e+01
-1.445668975400928389e+02
-1.880447900425101011e+02
-2.174903682839054966e+02
-2.280889283444841737e+02
-2.058132957957419649e+02
-2.079967671215314056e+02
-2.283431645883875092e+02
-2.037838319283110593e+02
-1.830387898465499461e+02
-1.867351608524484163e+02
-1.940536265601440675e+02
-2.173692752511746846e+02
-2.203381083067454824e+02
-2.272640419257256781e+02
-2.667719467130244198e+02
-2.775437454141850822e+02
-3.034144012819568843e+02
-3.299151472099066496e+02
-4.188629945295164134e+02
-4.810692702209282743e+02
-4.235176186053951142e+02
-3.380702831498056185e+02
-2.101696304964108606e+02
-6.009071170664009287e+01
2.753877940357608622e+01
8.054979923164884781e+01
-6.286972521791633994e+01
-2.307373796873890512e+02
-2.195304038528569777e+02
-3.095608705099327267e+02
-2.735523428035894540e+02
-2.689848455354601811e+02
-3.444429692681394499e+02
-2.771715499384055192e+02
-3.291027693331286628e+02
-3.301268548571649717e+02
-3.126227975046812730e+02
-7.902827913849046126e+02
-8.467522067482244665e+02
9.253897037994005359e+02
3.705367169234003086e+03
5.266133298948239826e+03
5.024767704496802253e+03
2.240634746416149028e+03
3.805433732986884365e+01
-4.587731671796336173e+02
-3.603595123076405571e+02
-5.052232438885761212e+02
-5.375139737877752850e+02
-5.428116618922192629e+02
-6.109669214380223821e+02
-5.426382210388480871e+02
-5.752034300381491221e+02
-5.277649664635991940e+02
-4.601045231957056103e+02
-4.813988588769414037e+02
-4.007896967368602077e+02
-4.095861808708526155e+02
-3.665448935982674357e+02
-2.900090444393125608e+02
-2.628623443701502538e+02
-2.077354937264313435e+02
-1.951974301438344241e+02
-1.533536483196591576e+02
-8.791934695269472400e+01
-8.092511794333947250e+01
-5.989236333119050926e+01
-5.150617966248417190e+01
-4.189728705235832962e+01
-1.755123768591157329e+01
-4.250970168508338531e+01
-5.620569193934871421e+00
3.962723397263066261e+01
-1.750909270836534048e+01
-4.493379641280244385e+01
-1.064425460307686819e+02
-1.377126647572943625e+02
-1.853380409912043660e+02
-2.078841220908900311e+02
-2.196000482858620728e+02
-2.198515832919585762e+02
-1.866511645638681784e+02
-1.853931761273977088e+02
-1.888435581271546653e+02
-1.849622146080624816e+02
-1.625969607546403211e+02
-1.457784588232141516e+02
-1.944486991728214207e+02
-1.989988040045957121e+02
-2.128662310509779729e+02
-2.155434109562142453e+02
-2.170323342669571502e+02
-2.548303451815011158e+02
-3.213147482824270469e+02
-4.554332431009520974e+02
-4.471410828209292845e+02
-4.030079421790945275e+02
-3.476995775041175989e+02
-1.915293061535997197e+02
-1.068575958486429727e+02
-1.339261087981597953e+01
2.142829954111603286e+01
-1.794756518811784360e+02
-1.766185485964825261e+02
-2.313397806959812613e+02
-2.237745390021819105e+02
-1.709824947268576523e+02
-2.624031956393348537e+02
-2.076613900588948241e+02
-2.299046861566368705e+02
-2.923831627628342176e+02
-2.127820931414491668e+02
-5.324869144143606263e+02
-8.362743784212880200e+02
3.186429567734519424e+02
3.030307218325499889e+03
4.894198837998612362e+03
5.527502199596304308e+03
3.440134560500962834e+03
8.017227551807702639e+02
-2.570221339253508859e+02
-2.687105246842141923e+02
-3.948488220243085038e+02
-4.530541279886862185e+02
-4.284063957276584347e+02
-4.920383966160290470e+02
-4.074933660960242605e+02
-4.374078085531501756e+02
-4.512860293725517522e+02
-3.901321670542124593e+02
-4.532323392313250565e+02
-4.078014833871706628e+02
-4.011557149675752498e+02
-4.224435015065160428e+02
-3.653317846332678869e+02
-3.431480302613239814e+02
-2.976790350192841288e+02
-2.358127755690313450e+02
-2.241624615461321071e+02
-2.167113650102756139e+02
-2.115156887939640171e+02
-2.098430043574391846e+02
-1.803183001376683592e+02
-1.887308272454803841e+02
-1.884730442339370313e+02
-1.942498847465324445e+02
-1.718968585327484959e+02
-1.348123613668620351e+02
-1.184384987411491039e+02
-1.347953786103861944e+02
-1.294076094484448163e+02
-1.250227634937142511e+02
-1.677916575390341052e+02
-1.827826794307690932e+02
-1.786024939495260355e+02
-1.830799694783347888e+02
-1.660869184390687394e+02
-1.559380705506248717e+02
-1.133803874553094602e+02
-1.552257356581499721e+02
-1.814382050639112265e+02
-1.996815557681225926e+02
-1.985498347684386147e+02
-1.912046917924885747e+02
-2.005015038205136761e+02
-2.344998078368895165e+02
-2.822676323031302559e+02
-3.356461205015656901e+02
-4.579158040194900536e+02
-4.746306637493544258e+02
-4.372714627647313819e+02
-4.236541837361447733e+02
-2.457599911115047746e+02
-1.200178039291316310e+02
-2.819439585921751856e+01
3.204676399985771695e+01
-7.697875545459442037e+01
-8.642773908462449128e+01
-1.257100307391306160e+02
-1.656893134652356423e+02
-8.865831980521235778e+01
-1.547863563041458121e+02
-1.462279452230500851e+02
-1.028475860907158932e+02
-1.818433017873035169e+02
-1.244545313813181622e+02
-2.914555371311111003e+02
-6.824468643737179718e+02
6.594818388340857496e+01
2.422694674454852247e+03
4.356513482734590980e+03
5.398559797454287946e+03
4.198140627278697139e+03
1.451194351611382672e+03
7.911110342090658776e+00
-2.191659551123129290e+02
-3.306402355751944242e+02
-4.488233106337679601e+02
-4.162787932530877697e+02
-5.048467784019782130e+02
-4.572096054504929725e+02
-4.511923105130063050e+02
-5.501307228580385527e+02
-4.499464315211270105e+02
-4.419227134107086954e+02
-3.925883761034386339e+02
-3.384313949782199984e+02
-3.747438251720171820e+02
-3.301097982021002508e+02
-3.403025544035712642e+02
-3.307751732807612939e+02
-2.734588800156959110e+02
-2.889085608864028245e+02
-2.746715619809427835e+02
-3.205486282857862648e+02
-3.278846937776950199e+02
-3.196282316838272664e+02
-3.595911329485558667e+02
-3.487820865728063495e+02
-3.880448823837670034e+02
-3.784019730411487217e+02
-2.832370178105865079e+02
-2.486300430592081057e+02
-1.936430660558000625e+02
-1.439941184017995681e+02
-1.983750936852860036e+02
-2.420816641644453568e+02
-2.248224378379452162e+02
-1.913469994205047442e+02
-2.036158811309027499e+02
-2.045651957436012651e+02
-1.941309044082207436e+02
-1.745150399958025389e+02
-1.562465254199335618e+02
-1.876906318181325162e+02
-1.847032432523668319e+02
-1.836380559054051389e+02
-1.489539041281044547e+02
-1.489479759283113367e+02
-1.723019316938626844e+02
-1.902786437929432566e+02
-2.575089374071263819e+02
-2.724978761938516527e+02
-3.737284515755595748e+02
-5.003542588659342982e+02
-4.563939276430630798e+02
-4.273691985400925546e+02
-3.039456642322038533e+02
-1.171656965838606226e+02
-2.084404815258704247e+01
6.960913836044747427e+01
-9.350836688133622232e+00
-9.474642977437270019e+01
-9.722793053111674055e+01
-1.553509108231268101e+02
-8.686565288816332497e+01
-1.220773713582455713e+02
-1.799980085115359998e+02
-9.302762841207959355e+01
-2.143846833616752576e+02
-1.847384662445583388e+02
-1.966171791435210139e+02
-5.762608392807831024e+02
-2.516622057874894836e+02
1.659316143759957868e+03
3.734288144990259752e+03
4.870680167316167172e+03
4.671200999733311619e+03
2.161199132096221092e+03
3.298861051005270042e+02
-1.646964256908246398e+02
-1.719625001567557661e+02
-3.109638450212444241e+02
-3.053349892487765374e+02
-3.584481645914409569e+02
-4.179277440332490414e+02
-3.656512864738594999e+02
-4.558201727792466045e+02
-3.798404415255950539e+02
-3.813924332406898543e+02
-3.894853104522692320e+02
-2.901399530069676302e+02
-3.414169584601175416e+02
-3.390352735341812718e+02
-2.695292195809063855e+02
-2.810521134031873771e+02
-2.790284749221463585e+02
-2.822394897837166923e+02
-2.573545315460236225e+02
-2.771836434788485235e+02
-3.219006744256015509e+02
-2.899216216919807039e+02
-3.126239711938835626e+02
-3.464160077216537275e+02
-3.890331794349509096e+02
-3.739760730333011907e+02
-3.258327447711561717e+02
-3.111552894075248332e+02
-2.045844044230578334e+02
-1.530029817368076408e+02
-1.359592291594545088e+02
-1.196938007761529974e+02
-1.366646443994069386e+02
-1.541820154641097247e+02
-1.588973772228188466e+02
-1.337543977193032561e+02
-1.247557392882774536e+02
-1.107050468832174062e+02
-9.980117042634570623e+01
-1.231577623594851048e+02
-8.290195555122267024e+01
-4.072434357967662066e+01
-9.214576452405033535e+01
-8.544772599460377194e+01
-7.097321556324132530e+01
-1.091598586137010045e+02
-1.520755496670559808e+02
-1.499520770821023916e+02
-1.772173134894687223e+02
-2.116917768093849475e+02
-1.356444411654270823e+02
-1.662518721037825458e+02
-1.988003602763214417e+02
-2.023845118234714278e+02
-2.278127015115329073e+02
-2.653020102182890128e+02
-4.139243844340263081e+02
-4.562426913981094003e+02
-3.821680665009150744e+02
-2.776796776527343127e+02
-1.890329553380705647e+02
-1.141966075035390134e+02
6.288117503932630825e+01
1.464843853636407687e+02
-3.113990186277492356e+01
-5.459543630953109528e+01
-1.795835885197968480e+02
-2.073539141774564598e+02
-8.067906846014632549e+01
-1.777269250623872381e+02
-1.657237581840500127e+02
-2.167670832411843094e+02
-2.161335087254629173e+02
-1.060564513494129244e+02
-4.332990729109150720e+02
-6.140277724716509056e+02
5.978894668988617696e+02
2.940412814227624494e+03
4.230503604558628467e+03
5.016188146637286991e+03
3.466657703646840218e+03
1.072520044906171734e+03
-1.366288885943723130e+01
-1.756821127689002537e+02
-3.219496644934071128e+02
-3.978222187517451403e+02
-3.730165574324363433e+02
-4.759159094986397349e+02
-3.927559156746775670e+02
-4.171941813801274179e+02
-4.744841059978937210e+02
-3.769154511151548945e+02
-3.785519048588485020e+02
-3.078063592818365919e+02
-3.173086264766612885e+02
-3.468739303475340421e+02
-2.480527105398794276e+02
-3.106526802554465121e+02
-2.670479538995206781e+02
-2.451220884763462493e+02
-3.098462313123873173e+02
-2.930635136844001067e+02
-2.738204621541706274e+02
-2.579511022483642364e+02
-3.019331682285838951e+02
-3.773805262205531221e+02
-3.882561483053543157e+02
-3.799128998802779051e+02
-3.720227121733931313e+02
-3.334120669433172566e+02
-2.447227625612639770e+02
-1.360533223279422259e+02
-1.065502042247792929e+02
-9.284878337121509162e+01
-7.712127272476453754e+01
-7.480872676830385615e+01
-7.438324564560569740e+01
-8.103122120518676752e+01
-1.027460436066688061e+02
-1.150977909034388773e+02
-1.105863231754603504e+02
-8.896438812549766340e+01
-9.374253488368097464e+01
-8.446347087256363295e+01
-7.163383573676988192e+01
-8.062052592379134808e+01
-1.162082713187722049e+02
-1.474745680418993743e+02
-1.100143828551509557e+02
-1.256641728007016070e+02
-1.551546645097958503e+02
-1.724705871558118702e+02
-1.733774971771584603e+02
-1.431894461208186442e+02
-1.496519173582718452e+02
-1.697742511632252729e+02
-1.739598365715229136e+02
-1.849623026698004935e+02
-1.858414629679549250e+02
-1.928994570478853063e+02
-1.852491945738087793e+02
-3.039800880411855815e+02
-4.290669454218737542e+02
-3.839622639942449496e+02
-2.867874985414911748e+02
-1.568108098026158075e+02
-5.870727966252755436e+01
2.630813566144263405e+01
2.139828628461938251e+02
9.005524683634567396e+01
-7.935324572948121613e+01
-1.207625127800412770e+02
-1.624690543391534447e+02
-9.006289992295539548e+01
-1.422996992306765378e+02
-1.812980029406135429e+02
-1.524035372096511196e+02
-2.638368525661671811e+02
-2.143705738673332348e+02
-2.561468967401661985e+02
-6.787960719785394303e+02
-2.946788227374346434e+02
1.739556084647770831e+03
3.812412461919597717e+03
4.890051945399281067e+03
4.489528502019184089e+03
1.922257455962552967e+03
1.545631312411834415e+02
-2.714571762550200447e+02
-2.817812673139707158e+02
-4.358159644075964820e+02
-4.125032324480315538e+02
-4.767871322526738140e+02
-5.083336519795669801e+02
-4.161258834295113047e+02
-4.629211946247481251e+02
-4.224568989182747600e+02
-4.191668825120373754e+02
-4.202896068995814858e+02
-3.451075692587130561e+02
-3.706071591838945665e+02
-3.078435217376766673e+02
-2.832006278606748992e+02
-2.909534143504397434e+02
-2.329787190846000442e+02
-2.658943897885577599e+02
-2.438031979438568158e+02
-2.097815189901285748e+02
-2.210285831724742991e+02
-2.142459041631887828e+02
-2.401377266147657394e+02
-2.615658148302284189e+02
-2.593181775574256562e+02
-2.701585671175013204e+02
-2.367481593294725997e+02
-1.790108835851715128e+02
-1.308322447468892733e+02
-1.180181382943629984e+02
-8.872353990692397474e+01
-8.918861788027622595e+01
-7.943290795290346296e+01
-7.404182582992432060e+01
-7.868623892721699065e+01
-7.500983410017234121e+01
-6.889627871242453239e+01
-8.995595260799483128e+01
-5.478616748782827983e+01
-5.165667738821359478e+01
-2.811852924758913375e+01
-6.096437211689621449e+01
-9.662117424550555711e+01
-9.765363711497903410e+01
-1.292698142038322544e+02
-1.528064066423837062e+02
-1.774183746987410473e+02
-1.770169650982599023e+02
-1.613105871479982341e+02
-1.792914249496408559e+02
-1.648391061021131065e+02
-1.506633017934335612e+02
-1.644765344217910865e+02
-1.696964489838621262e+02
-1.735019360893957980e+02
-1.746068197750084607e+02
-1.704007991799138324e+02
-1.903525691792960117e+02
-1.962749402792748015e+02
-2.056371650127246085e+02
-2.267958748635449808e+02
-2.302081843880872327e+02
-2.103057089107235811e+02
-3.392984404443251378e+02
-3.948317888875125163e+02
-2.979493931758482859e+02
-1.779545846881684952e+02
-5.046387135032702531e+01
5.782532011063504740e+01
1.533700228520652900e+02
2.753611740173388398e+02
5.246731541119247311e+01
-7.200082162993672341e+01
-1.120525333293375212e+02
-1.550563143442444698e+02
-9.827774037447743183e+01
-1.648406369723423666e+02
-1.769524408755887634e+02
-1.637444096708838401e+02
-2.502920880800526220e+02
-1.772945245589651222e+02
-3.360897156406283557e+02
-8.315319012222321362e+02
-2.859479375602181790e+02
2.100535522062972632e+03
4.303404125496771485e+03
5.378248546278843605e+03
4.231522438912830694e+03
1.418157388332577511e+03
-1.075208067683644373e+02
-2.766591637931442165e+02
-2.996453430284393562e+02
-4.249280231253550255e+02
-3.746650074217498627e+02
-4.510756248806887356e+02
-4.582600048236492967e+02
-4.398568095579358896e+02
-4.773834845938009153e+02
-3.718768848897663020e+02
-3.888587850775411425e+02
-3.612704076170501821e+02
-3.054231089567825848e+02
-3.344017696878686365e+02
-2.719758518679811914e+02
-2.457507488782301550e+02
-2.578772188871168964e+02
-2.052616543818517982e+02
-1.938005376478950836e+02
-1.465528065248067264e+02
-1.171014403283714387e+02
-1.170669099516406959e+02
-8.134288938529373070e+01
-7.470323098780636428e+01
-9.204903483948972109e+01
-1.181243953986344053e+02
-1.271462860880164527e+02
-1.096360263775572861e+02
-5.639314206091901127e+01
-7.967926098630236709e+00
-9.470279204907580350e+00
-4.311036561093265362e+01
-1.149849112328114842e+02
-1.504498039522678710e+02
-1.388768025120993457e+02
-1.495879304720211564e+02
-1.634983747083871322e+02
-1.751593191739395365e+02
-1.712565099053145445e+02
-1.461416453595715552e+02
-1.693249525920016083e+02
-1.526729444878326944e+02
-1.795535303652970924e+02
-2.252932420126467150e+02
-2.337970932520377119e+02
-2.486373136294475046e+02
-2.574174765235153473e+02
-2.667816695360169206e+02
-2.789218358541852467e+02
-2.858392191281952819e+02
-3.002444097714096642e+02
-3.008586684574420360e+02
-3.173726561322743578e+02
-3.233689159091520082e+02
-3.192563770555714768e+02
-3.130332683818375017e+02
-3.147620716719981147e+02
-3.157612484576769134e+02
-3.245034480916442590e+02
-4.643222280086524734e+02
-4.798882199596826013e+02
-3.331062857967702371e+02
-1.891712278344885760e+02
-6.865261753967355673e+01
4.832589191289412156e+01
1.539887189052486747e+02
1.476587735065039055e+02
-1.552636866018060005e+02
-2.227555861695423687e+02
-2.823720349528227871e+02
-3.052552739590415740e+02
-2.362721412982319009e+02
-3.396323150369153154e+02
-3.164313474672215989e+02
-3.453311161641355511e+02
-4.018048485056292520e+02
-3.062289376295809120e+02
-5.746329780408445913e+02
-1.000536321539126448e+03
-1.265181956593457357e+01
2.808237954291505503e+03
4.953380528710396902e+03
5.645921088815955045e+03
3.546959538070876988e+03
6.665055652075310491e+02
-4.260800770850458434e+02
-3.536981631380205044e+02
-4.347257939861832483e+02
-5.428716534012743296e+02
-5.180198085776742118e+02
-5.782348031938965960e+02
-4.948855746397458120e+02
-4.889538677278538330e+02
-5.058746892879868255e+02
-4.191790707921713874e+02
-4.502559995483485977e+02
-3.875048852359248599e+02
-3.145366697529165094e+02
-2.792750802071010412e+02
-1.751613457939197644e+02
-1.570463928972105236e+02
-1.111338998301639833e+02
-8.825170704030932711e+01
-9.987135136826128701e+01
-3.418645595594634301e+01
-7.609594654458004648e+00
-1.297501467217861304e+00
3.470917888184077071e+01
3.253559394443931296e+01
5.468715789838864794e+01
6.903466245940651902e+01
6.592015562320760580e+01
9.811842538854668305e+01
1.103620736346092315e+02
7.059077238072219984e+01
2.301742308724906039e+01
-4.839262148589268975e+01
-9.820983620565463923e+01
-1.108370574846374836e+02
-1.546284162292876090e+02
-1.666366266952366288e+02
-1.495400620256351942e+02
-1.626852266882478375e+02
-1.384459613910396740e+02
-1.375812685874202543e+02
-1.313012854503553513e+02
-1.138001602136327506e+02
-1.327972003562014436e+02
-1.398932848048354458e+02
-1.362483354109232891e+02
-1.536072744222917095e+02
-1.647569103575656300e+02
-1.903379860513856556e+02
-2.291241136236697855e+02
-2.498326377607468487e+02
-2.572473469360907075e+02
-2.828445395410402625e+02
-3.603282690817092089e+02
-4.675829800317167724e+02
-4.541272231592408843e+02
-3.771004496415504263e+02
-2.681183995682519594e+02
-1.372536242001150697e+02
-2.120376335688878910e+01
7.280913671821301136e+01
8.956472742110469198e+01
-1.708313978406404203e+02
-2.470969216767544765e+02
-2.675808971492638193e+02
-2.826708440969345020e+02
-2.025711812343499787e+02
-2.904812032429945248e+02
-2.478645840925635468e+02
-2.091034361830408272e+02
-2.995448913542918490e+02
-2.359904666455568361e+02
-4.280058657104098643e+02
-9.667442117093448815e+02
-3.208913609334367720e+02
2.284126766247617979e+03
4.652206397616036156e+03
5.633217104305415887e+03
3.990254275719596990e+03
1.020874135404477101e+03
-3.719006391561334226e+02
-3.765221006979285789e+02
-3.872506342415054519e+02
-5.432135905409534189e+02
-5.318651617815107784e+02
-5.844373409676639994e+02
-5.364555321380075839e+02
-4.976264640263881915e+02
-5.402097197338021033e+02
-4.642576088462225812e+02
-4.965542812189630695e+02
-4.542620467865189653e+02
-4.074356706889803945e+02
-4.684767736225639965e+02
-4.073554117745133567e+02
-3.762181422521517220e+02
-3.288721997225173936e+02
-2.710313389904449082e+02
-2.545702293884596656e+02
-2.048550277098599111e+02
-1.797776188285547221e+02
-1.426295016892873946e+02
-9.580387622633431022e+01
-6.131661430535541513e+01
-5.689508719629331068e+01
-7.559327774297742053e+01
-4.811157289624344457e+01
-4.368692818201134997e+01
-6.076506428968836815e+01
-7.231695602538249545e+01
-1.112164546215449690e+02
-2.003248226388164710e+02
-3.049694019034314465e+02
-3.354064840868031752e+02
-3.594068699523456871e+02
-3.688484949629580569e+02
-3.480291460670771926e+02
-3.403087703919123328e+02
-3.170937958174279743e+02
-3.119210312252250787e+02
-3.093010327432343729e+02
-2.815867947561692972e+02
-3.170582555667276665e+02
-3.230374832345320897e+02
-3.312628205131491654e+02
-3.438437062883978115e+02
-3.363769005042619824e+02
-3.405384772429115401e+02
-3.500657793665343434e+02
-3.794006387225115873e+02
-4.309712804191027544e+02
-5.363205722772241870e+02
-5.898808124800056021e+02
-5.497659606275622082e+02
-4.575614343686225993e+02
-3.203721630034540340e+02
-1.851579951368346428e+02
-8.967526599202903981e+01
-7.485789194651886191e+00
-1.796134102651706428e+02
-2.961637139476840730e+02
-2.714943235233765790e+02
-3.214660364996333328e+02
-2.600148255927984451e+02
-2.744598432811187649e+02
-3.052129614799663386e+02
-2.504573951050407743e+02
-3.016497002527067934e+02
-2.182971197412440461e+02
-2.387099307101400996e+02
-7.239451652209905888e+02
-5.419436621637253211e+02
1.494277045779967239e+03
4.151034515223194830e+03
5.515343861220195322e+03
4.779773804233960618e+03
1.893708487197581235e+03
8.144760739752129552e+01
-2.065795266358277331e+02
-1.642415937660530290e+02
-2.832366811999416427e+02
-2.729531072719770464e+02
-3.301319232534519870e+02
-2.922412792308558096e+02
-2.504077940359025547e+02
-2.709123391391046312e+02
-2.058003764752761242e+02
-1.802048401858398847e+02
-1.162891926607728550e+02
-3.712774647204103218e+01
-1.211158559167097692e+01

